t,x,y,vx,vy,r,v,energy,h,e,dt_eff
0,3800000,0,0,3360,3800000,3360,-5578057.895,1.2768e+10,0.005946979449,0
36.702,3798011.018,123297.2036,-108.3758371,3358.241327,3800011.828,3359.989603,-5578057.895,1.2768e+10,0.005946979449,1.8351
135.886,3772766.051,455485.7203,-400.347247,3335.920482,3800161.96,3359.857643,-5578057.895,1.2768e+10,0.005946979449,4.9592
248.102,3709471.008,826992.6084,-726.8096625,3279.964651,3800538.374,3359.526812,-5578057.895,1.2768e+10,0.005946979449,5.6108
360.124,3610120.028,1189796.905,-1045.500846,3192.156006,3801129.212,3359.00759,-5578057.895,1.2768e+10,0.005946979449,5.6011
471.117,3477011.145,1537854.131,-1351.065062,3074.554141,3801920.808,3358.312071,-5578057.895,1.2768e+10,0.005946979449,5.54965
584.368,3306970.322,1877828.365,-1649.307057,2924.394078,3802932.037,3357.423788,-5578057.895,1.2768e+10,0.005946979448,5.66255
695.544,3108069.721,2193443.125,-1925.914216,2748.849759,3804114.895,3356.385044,-5578057.895,1.2768e+10,0.005946979448,5.5588
805.594,2881890.018,2485203.33,-2181.317854,2549.362244,3805459.981,3355.204231,-5578057.895,1.2768e+10,0.005946979447,5.5025
916.654,2626280.142,2756038.826,-2418.070243,2324.087378,3806980.088,3353.870278,-5578057.895,1.2768e+10,0.005946979447,5.553
1029.444,2341096.526,3004210.454,-2634.635276,2072.960729,3808676.069,3352.382618,-5578057.895,1.2768e+10,0.005946979446,5.6395
1129.704,2068216.329,3200134.183,-2805.261375,1832.877505,3810298.882,3350.959762,-5578057.895,1.2768e+10,0.005946979445,5.013
1225.822,1791542.259,3364713.264,-2948.259492,1589.665086,3811944.257,3349.517744,-5578057.895,1.2768e+10,0.005946979445,4.8059
1321.066,1504814.845,3504205.213,-3069.113511,1337.83664,3813649.419,3348.023987,-5578057.895,1.2768e+10,0.005946979445,4.7622
1415.995,1208595.131,3618930.664,-3168.130903,1077.907642,3815411.031,3346.481481,-5578057.895,1.2768e+10,0.005946979444,4.74645
1514.754,891583.3131,3711715.263,-3247.75282,799.9995927,3817296.294,3344.831495,-5578057.895,1.2768e+10,0.005946979444,4.93795
1615.15,562500.4027,3777603.658,-3303.711456,511.7996665,3819253.344,3343.119543,-5578057.895,1.2768e+10,0.005946979443,5.0198
1710.083,247291.1165,3813117.547,-3333.134255,236.0266072,3821127.887,3341.480589,-5578057.895,1.2768e+10,0.005946979443,4.74665
1805.935,-72690.33229,3822339.688,-3339.532453,-43.64495184,3823030.81,3339.817643,-5578057.895,1.2768e+10,0.005946979443,4.7926
1901.615,-391591.4237,3804829.177,-3322.585488,-322.0953836,3824927.308,3338.161135,-5578057.895,1.2768e+10,0.005946979442,4.784
1996.383,-704768.6942,3761332.345,-3283.003087,-595.2794208,3826789.767,3336.535158,-5578057.895,1.2768e+10,0.005946979442,4.7384
2091.589,-1014543.224,3691764.478,-3220.731712,-865.2337852,3828631.99,3334.927625,-5578057.895,1.2768e+10,0.005946979441,4.7603
2185.932,-1314627.127,3597755.788,-3137.255275,-1126.495601,3830416.582,3333.371116,-5578057.895,1.2768e+10,0.005946979441,4.71715
2282.664,-1613079.026,3476157.004,-3029.816806,-1386.095197,3832191.47,3331.823791,-5578057.895,1.2768e+10,0.005946979441,4.8366
2378.224,-1896699.29,3331839.357,-2902.752008,-1632.571189,3833878.154,3330.354022,-5578057.895,1.2768e+10,0.00594697944,4.778
2475.428,-2171748.196,3161435.809,-2753.119089,-1871.391321,3835513.864,3328.929287,-5578057.895,1.2768e+10,0.00594697944,4.8602
2569.889,-2424202.357,2974210.585,-2589.061588,-2090.413619,3837015.203,3327.622124,-5578057.895,1.2768e+10,0.00594697944,4.72305
2663.532,-2658365.878,2768838.215,-2409.409715,-2293.414295,3838407.769,3326.410122,-5578057.895,1.2768e+10,0.005946979439,4.68215
2758.183,-2877190.665,2542663.952,-2211.845703,-2482.984444,3839709.116,3325.277908,-5578057.895,1.2768e+10,0.005946979439,4.73255
2853.947,-3078832.23,2296381.603,-1996.982733,-2657.554871,3840908.274,3324.234939,-5578057.895,1.2768e+10,0.005946979439,4.7882
2951.862,-3263033.666,2028202.122,-1763.26521,-2816.931328,3842003.716,3323.28246,-5578057.895,1.2768e+10,0.005946979439,4.89575
3048.479,-3421752.683,1749244.107,-1520.372976,-2954.186777,3842947.615,3322.461964,-5578057.895,1.2768e+10,0.005946979439,4.83085
3142.614,-3553330.618,1465640.696,-1273.616909,-3067.920326,3843730.106,3321.781925,-5578057.895,1.2768e+10,0.005946979438,4.70675
3234.556,-3659034.811,1179219.348,-1024.554056,-3159.25555,3844358.727,3321.23571,-5578057.895,1.2768e+10,0.005946979438,4.5971
3325.395,-3740683.887,888882.2668,-772.1997774,-3229.785161,3844844.292,3320.813858,-5578057.895,1.2768e+10,0.005946979438,4.54195
3421.496,-3801855.558,575777.2889,-500.1483851,-3282.614431,3845208.079,3320.497841,-5578057.895,1.2768e+10,0.005946979438,4.80505
3514.486,-3835991.457,268990.6097,-233.6460978,-3312.090638,3845411.084,3320.321505,-5578057.895,1.2768e+10,0.005946979438,4.6495
3601.804,-3845411.349,-20707.68095,17.98649539,-3320.224128,3845467.104,3320.272846,-5578057.895,1.2768e+10,0.005946979438,4.851
3709.6789,-3826705.756,-378265.4673,328.5673044,-3304.072782,3845355.862,3320.369471,-5578057.895,1.2768e+10,0.005946979438,5.45405
3817.4747,-3774674.594,-732266.2023,636.1090691,-3259.141556,3845046.434,3320.638256,-5578057.895,1.2768e+10,0.005946979438,5.38265
3925.2897,-3689743.656,-1079949.055,938.259388,-3185.784368,3844541.352,3321.077042,-5578057.895,1.2768e+10,0.005946979438,5.39165
4034.7328,-3570636.764,-1423237.656,1236.736272,-3082.875995,3843833.025,3321.692491,-5578057.895,1.2768e+10,0.005946979439,5.4811
4149.3462,-3411522.762,-1768980.279,1537.551208,-2945.342281,3842886.778,3322.514841,-5578057.895,1.2768e+10,0.005946979439,5.7584
4264.1767,-3218363.329,-2097877.219,1823.965011,-2778.289597,3841738.062,3323.513419,-5578057.895,1.2768e+10,0.00594697944,5.73965
4375.4957,-3000645.066,-2396900.895,2084.648832,-2589.877569,3840443.296,3324.639315,-5578057.895,1.2768e+10,0.00594697944,5.54665
4486.921,-2754705.349,-2673830.818,2326.388179,-2376.889999,3838980.698,3325.911608,-5578057.895,1.2768e+10,0.005946979441,5.574
4602.1612,-2473277.173,-2933909.581,2553.785167,-2132.969685,3837307.05,3327.368083,-5578057.895,1.2768e+10,0.005946979441,5.7829
4718.0298,-2165347.33,-3165777.241,2756.927163,-1865.835876,3835475.798,3328.962436,-5578057.895,1.2768e+10,0.005946979442,5.7946
4830.7025,-1844828.258,-3360485.854,2927.944881,-1587.509643,3833569.678,3330.622778,-5578057.895,1.2768e+10,0.005946979443,5.61575
4943.4009,-1506516.703,-3522959.294,3071.117525,-1293.432704,3831557.746,3332.376181,-5578057.895,1.2768e+10,0.005946979444,5.63705
5055.178,-1156644.754,-3650625.631,3184.138958,-988.9818827,3829477.064,3334.190467,-5578057.895,1.2768e+10,0.005946979444,5.5835
5170.7216,-783498.1895,-3746202.631,3269.397415,-663.9132139,3827257.97,3336.126529,-5578057.895,1.2768e+10,0.005946979445,5.7987
5287.3382,-398838.1215,-3804119.707,3321.928511,-328.4196734,3824970.404,3338.123502,-5578057.895,1.2768e+10,0.005946979446,5.8344
5401.2767,-18994.45168,-3822664.291,3340.095045,3.26711035,3822711.482,3340.096643,-5578057.895,1.2768e+10,0.005946979447,5.68165
5513.593,355641.7183,-3803894.498,3325.632978,330.7908064,3820483.528,3342.043875,-5578057.895,1.2768e+10,0.005946979448,5.6085
5630.0101,740290.5833,-3745743.02,3276.754796,667.4657346,3818196.029,3344.044332,-5578057.895,1.2768e+10,0.005946979449,5.84445
5746.4176,1117227.437,-3648740.986,3193.773007,997.7820899,3815954.393,3346.005846,-5578057.895,1.2768e+10,0.00594697945,5.8177
5861.0526,1477097.422,-3516157.33,3079.448519,1313.504775,3813814.254,3347.879624,-5578057.895,1.2768e+10,0.005946979451,5.7222
5972.4627,1812587.632,-3353280.622,2938.338353,1608.157801,3811819.1,3349.62741,-5578057.895,1.2768e+10,0.005946979452,5.55365
6083.9722,2131042.565,-3158193.794,2768.767615,1888.134647,3809925.256,3351.287298,-5578057.895,1.2768e+10,0.005946979453,5.5779
6195.5104,2429153.086,-2932787.066,2572.35201,2150.477599,3808152.398,3352.841894,-5578057.895,1.2768e+10,0.005946979454,5.5768
6307.0176,2703871.928,-2679302.304,2351.028761,2392.451786,3806518.651,3354.27515,-5578057.895,1.2768e+10,0.005946979454,5.5752
6419.8833,2955476.045,-2396530.108,2103.729331,2614.24867,3805022.367,3355.588355,-5578057.895,1.2768e+10,0.005946979455,5.65085
6533.2639,3178903.541,-2088697.595,1834.147346,2811.353265,3803693.648,3356.754931,-5578057.895,1.2768e+10,0.005946979455,5.67105
6648.385,3373375.947,-1754885.552,1541.485777,2983.026214,3802537.124,3357.770659,-5578057.895,1.2768e+10,0.005946979456,5.7655
6763.2234,3532852.676,-1403933.319,1233.518131,3123.88424,3801588.72,3358.603836,-5578057.895,1.2768e+10,0.005946979456,5.7393
6878.3271,3656437.39,-1037764.4,911.9726081,3233.088943,3800853.764,3359.249641,-5578057.895,1.2768e+10,0.005946979457,5.75695
6994.3157,3742942.384,-657997.9188,578.3174959,3309.55356,3800339.32,3359.701756,-5578057.895,1.2768e+10,0.005946979457,5.80415
7112.502,3790873.242,-263993.5014,232.0425465,3351.93014,3800054.277,3359.952292,-5578057.895,1.2768e+10,0.005946979457,5.921
7198.2984,3799924.213,24070.68921,-21.15772968,3359.932989,3800000.451,3359.999604,-5578057.895,1.2768e+10,0.005946979457,5.6888
7310.87125,3778848.819,401568.9147,-352.9606587,3341.298522,3800125.786,3359.889438,-5578057.895,1.2768e+10,0.005946979457,5.59625
7424.7677,3719685.109,779469.6348,-685.0546321,3288.993653,3800477.631,3359.580197,-5578057.895,1.2768e+10,0.005946979457,5.7479
7540.06045,3621651.6,1153993.774,-1014.058138,3202.346471,3801060.634,3359.067851,-5578057.895,1.2768e+10,0.005946979457,5.77365
7655.3092,3486325.505,1516481.161,-1332.307483,3082.781796,3801865.416,3358.360735,-5578057.895,1.2768e+10,0.005946979456,5.7564
7770.65235,3314939.453,1863627.658,-1636.854896,2931.429693,3802884.645,3357.465413,-5578057.895,1.2768e+10,0.005946979456,5.77295
7886.14255,3109101.486,2191969.754,-1924.623653,2749.760085,3804108.759,3356.390431,-5578057.895,1.2768e+10,0.005946979455,5.77535
8001.3759,2871728.411,2497030.544,-2191.664058,2540.403151,3805520.412,3355.151191,-5578057.895,1.2768e+10,0.005946979454,5.7543
8117.8945,2601739.683,2779417.065,-2438.488167,2302.468772,3807126.029,3353.742236,-5578057.895,1.2768e+10,0.005946979454,5.8645
8240.5548,2288108.321,3045155.856,-2670.322677,2026.325074,3808991.189,3352.106279,-5578057.895,1.2768e+10,0.005946979453,6.2776
8359.7108,1957986.093,3269505.168,-2865.579491,1735.95362,3810954.419,3350.38517,-5578057.895,1.2768e+10,0.005946979452,5.7856
8473.0126,1624174.647,3449719.557,-3021.955416,1442.641224,3812939.589,3348.645732,-5578057.895,1.2768e+10,0.005946979451,5.6002
8584.51285,1280005.454,3593842.92,-3146.518492,1140.547324,3814986.356,3346.853271,-5578057.895,1.2768e+10,0.00594697945,5.56145
8697.8966,917516.8461,3705230.952,-3242.210036,822.723885,3817142.068,3344.966443,-5578057.895,1.2768e+10,0.005946979449,5.7272
8811.67685,544679.2972,3780321.431,-3305.99655,496.200962,3819359.325,3343.02686,-5578057.895,1.2768e+10,0.005946979448,5.66845
8924.6188,169244.989,3817842.551,-3336.859174,167.7867141,3821592.025,3341.074906,-5578057.895,1.2768e+10,0.005946979447,5.6356
9036.60085,-204637.1316,3818335.839,-3335.349751,-158.8886025,3823815.495,3339.132155,-5578057.895,1.2768e+10,0.005946979446,5.57945
9150.20615,-581923.8346,3781546.474,-3301.276815,-488.1537458,3826059.211,3337.172859,-5578057.895,1.2768e+10,0.005946979445,5.73455
9264.36935,-955302.2275,3707171.833,-3234.470872,-813.6280525,3828279.685,3335.234988,-5578057.895,1.2768e+10,0.005946979444,5.69395
9378.48625,-1319080.374,3596153.646,-3135.836521,-1130.370895,3830443.066,3333.348023,-5578057.895,1.2768e+10,0.005946979443,5.71225
9491.6295,-1666907.348,3451023.753,-3007.659436,-1432.890584,3832511.586,3331.544793,-5578057.895,1.2768e+10,0.005946979443,5.6275
9605.59065,-2000913.012,3271042.853,-2849.324515,-1723.082107,3834497.91,3329.81413,-5578057.895,1.2768e+10,0.005946979442,5.73605
9720.8713,-2318791.71,3056318.113,-2660.97124,-1998.983082,3836388.328,3328.16786,-5578057.895,1.2768e+10,0.005946979441,5.7791
9837.32105,-2616273.684,2808302.798,-2443.9107,-2256.934655,3838157.448,3326.627954,-5578057.895,1.2768e+10,0.00594697944,5.84585
9953.75965,-2886994.701,2531615.184,-2202.201017,-2491.474774,3839767.42,3325.22719,-5578057.895,1.2768e+10,0.00594697944,5.80905
10069.38945,-3126686.748,2231276.002,-1940.221745,-2698.968737,3841192.864,3323.987464,-5578057.895,1.2768e+10,0.005946979439,5.76665
10183.51865,-3332456.154,1912825.418,-1662.78108,-2876.974113,3842416.57,3322.923557,-5578057.895,1.2768e+10,0.005946979438,5.67405
