t,x,y,vx,vy,r,v,energy,h,e,dt_eff
0,7000000,0,0,6000,7000000,6000,-38938754.29,4.2e+10,0.3677416998,0
21.690264,6998086.574,130129.7254,-176.4326032,5998.359756,6999296.354,6000.953943,-38938754.29,4.2e+10,0.3677416998,1.0845132
26.259864,6997195.42,157538.1399,-213.6035061,5997.59572,6998968.639,6001.398243,-38938754.29,4.2e+10,0.3677416998,0.209928
30.5872368,6996194.914,183490.1635,-248.8045293,5996.737846,6998600.711,6001.897074,-38938754.29,4.2e+10,0.3677416998,0.2454096
35.144756,6994976.501,210818.0855,-285.8782827,5995.693007,6998152.65,6002.504563,-38938754.29,4.2e+10,0.3677416998,0.213164
39.7597872,6993570.534,238485.6705,-323.4205984,5994.487167,6997635.617,6003.205584,-38938754.29,4.2e+10,0.3677416998,0.2495568
44.3855232,6991987.443,266211.5025,-361.0508204,5993.129201,6997053.449,6003.994947,-38938754.29,4.2e+10,0.3677416998,0.2259504
48.8338416,6990300.886,292867.6824,-397.2386227,5991.682236,6996433.232,6004.835929,-38938754.29,4.2e+10,0.3677416998,0.2283792
53.2158384,6988482.081,319119.8443,-432.8878021,5990.121521,6995764.381,6005.742892,-38938754.29,4.2e+10,0.3677416998,0.2158608
57.6078432,6986502.37,345424.8049,-468.6193915,5988.422393,6995036.358,6006.730133,-38938754.29,4.2e+10,0.3677416998,0.2170944
62.1304608,6984299.778,372503.9276,-505.4147157,5986.531558,6994226.374,6007.82857,-38938754.29,4.2e+10,0.3677416998,0.2412096
66.6978384,6981906.495,399842.0404,-542.5754432,5984.476526,6993346.264,6009.022167,-38938754.29,4.2e+10,0.3677416998,0.2304864
71.1086256,6979434.164,426233.66,-578.4634013,5982.353074,6992437.084,6010.255254,-38938754.29,4.2e+10,0.3677416998,0.2208816
75.517608,6976804.644,452604.8195,-614.3380013,5980.09401,6991470.1,6011.566813,-38938754.29,4.2e+10,0.3677416998,0.244224
80.077224,6973918.914,479866.1536,-651.439742,5977.614112,6990408.897,6013.006254,-38938754.29,4.2e+10,0.3677416998,0.214416
84.522112,6970942.953,506430.3448,-687.6094672,5975.055883,6989314.512,6014.4908,-38938754.29,4.2e+10,0.3677416998,0.209972
88.795752,6967930.045,531960.0924,-722.3871823,5972.465077,6988206.54,6015.993877,-38938754.29,4.2e+10,0.3677416998,0.214764
93.1593504,6964700.359,558015.5189,-757.898545,5969.686951,6987018.85,6017.605213,-38938754.29,4.2e+10,0.3677416998,0.2211312
97.6106784,6961246.075,584581.99,-794.1255919,5966.714584,6985748.566,6019.328732,-38938754.29,4.2e+10,0.3677416998,0.2193312
102.417792,6957334.586,613256.6372,-833.2502481,5963.347492,6984310.148,6021.280535,-38938754.29,4.2e+10,0.3677416998,0.245064
106.979544,6953448.818,640452.373,-870.3799886,5960.001168,6982881.189,6023.219674,-38938754.29,4.2e+10,0.3677416998,0.2177
111.286184,6949624.92,666112.9057,-905.4351972,5956.706787,6981474.982,6025.128102,-38938754.29,4.2e+10,0.3677416998,0.212992
115.601024,6945642.336,691807.7846,-940.5590892,5953.274284,6980010.42,6027.115902,-38938754.29,4.2e+10,0.3677416998,0.212312
120.0651648,6941362.432,718375.8547,-976.9004407,5949.583921,6978436.521,6029.2523,-38938754.29,4.2e+10,0.3677416998,0.2479488
124.458832,6936991.677,744508.1137,-1012.670256,5945.813502,6976829.212,6031.434262,-38938754.29,4.2e+10,0.3677416998,0.208972
128.700888,6932622.618,769722.6351,-1047.20788,5942.042811,6975222.527,6033.615592,-38938754.29,4.2e+10,0.3677416998,0.21516
133.1159952,6927919.725,795948.478,-1083.156708,5937.982064,6973493.077,6035.963837,-38938754.29,4.2e+10,0.3677416998,0.2498496
137.828996,6922724.372,823923.6778,-1121.533684,5933.493756,6971582.529,6038.558269,-38938754.29,4.2e+10,0.3677416998,0.209972
142.12926,6917826.188,849430.2116,-1156.552271,5929.259922,6969781.263,6041.004583,-38938754.29,4.2e+10,0.3677416998,0.213188
146.5311696,6912656.249,875520.488,-1192.401072,5924.788816,6967880.06,6043.586918,-38938754.29,4.2e+10,0.3677416998,0.2231616
151.0037136,6907241.723,902008.9427,-1228.827749,5920.103569,6965888.914,6046.291749,-38938754.29,4.2e+10,0.3677416998,0.2239056
155.4863088,6901651.554,928535.5766,-1265.339019,5915.263525,6963833.175,6049.084675,-38938754.29,4.2e+10,0.3677416998,0.2317008
160.0249584,6895824.727,955371.4856,-1302.309714,5910.215536,6961690.408,6051.996222,-38938754.29,4.2e+10,0.3677416998,0.2235024
164.5209792,6889887.18,981932.4216,-1338.936065,5905.06843,6959506.924,6054.963496,-38938754.29,4.2e+10,0.3677416998,0.2195472
168.963408,6883858.661,1008153.705,-1375.128731,5899.839156,6957289.987,6057.97665,-38938754.29,4.2e+10,0.3677416998,0.217968
173.3537232,6877742.89,1034044.257,-1410.899715,5894.530793,6955040.963,6061.033845,-38938754.29,4.2e+10,0.3677416998,0.2146512
177.8643312,6871295.984,1060619.602,-1447.653862,5888.931292,6952670.167,6064.257041,-38938754.29,4.2e+10,0.3677416998,0.2148432
182.1764928,6864977.703,1086001.834,-1482.79394,5883.439802,6950346.671,6067.416401,-38938754.29,4.2e+10,0.3677416998,0.2187168
186.5166624,6858465.368,1111524.719,-1518.165222,5877.775809,6947951.814,6070.673282,-38938754.29,4.2e+10,0.3677416998,0.2151984
190.99932,6851578.066,1137859.395,-1554.70092,5871.781444,6945419.066,6074.118231,-38938754.29,4.2e+10,0.3677416998,0.248688
195.556548,6844408.298,1164604.27,-1591.847766,5865.536588,6942782.443,6077.705059,-38938754.29,4.2e+10,0.3677416998,0.215892
200.033896,6837199.333,1190852.306,-1628.346854,5859.252809,6940131.406,6081.312108,-38938754.29,4.2e+10,0.3677416998,0.213916
204.455552,6829919.648,1216745.92,-1664.39526,5852.902511,6937454.362,6084.955167,-38938754.29,4.2e+10,0.3677416998,0.22064
208.766748,6822668.343,1241965.333,-1699.546341,5846.572097,6934787.755,6088.584651,-38938754.29,4.2e+10,0.3677416998,0.219604
213.236112,6814991.012,1268080.857,-1735.990439,5839.864453,6931964.48,6092.428057,-38938754.29,4.2e+10,0.3677416998,0.2423712
217.709064,6807144.432,1294187.001,-1772.467309,5833.003287,6929078.966,6096.356921,-38938754.29,4.2e+10,0.3677416998,0.219504
222.1382928,6799213.77,1320007.391,-1808.591125,5826.062791,6926162.53,6100.328638,-38938754.29,4.2e+10,0.3677416998,0.2186256
226.535928,6791181.376,1345612.873,-1844.460765,5819.027304,6923208.684,6104.352077,-38938754.29,4.2e+10,0.3677416998,0.218112
230.9474256,6782965.167,1371267.664,-1880.447013,5811.8246,6920187.241,6108.468397,-38938754.29,4.2e+10,0.3677416998,0.2186592
235.633404,6774063.863,1398483.513,-1918.676227,5804.014211,6916913.861,6112.928875,-38938754.29,4.2e+10,0.3677416998,0.209532
240.069644,6765471.87,1424214.83,-1954.871781,5796.468209,6913754.227,6117.235273,-38938754.29,4.2e+10,0.3677416998,0.208532
244.3815909,6756966.711,1449192.824,-1990.056758,5788.991674,6910626.525,6121.49904,-38938754.29,4.2e+10,0.3677416998,0.2184342857
248.902284,6747886.887,1475345.079,-2026.948856,5781.002502,6907287.495,6126.051877,-38938754.29,4.2e+10,0.3677416998,0.209068
253.342512,6738806.318,1500996.348,-2063.188093,5773.004946,6903948.192,6130.606105,-38938754.29,4.2e+10,0.3677416998,0.2483808
257.9514672,6729210.483,1527584.435,-2100.808413,5764.545167,6900419.403,6135.419869,-38938754.29,4.2e+10,0.3677416998,0.2491824
262.4678736,6719639.123,1553600.448,-2137.677293,5756.09834,6896899.614,6140.222497,-38938754.29,4.2e+10,0.3677416998,0.2207952
266.8223568,6710253.242,1578647.282,-2173.228096,5747.806824,6893448.035,6144.933169,-38938754.29,4.2e+10,0.3677416998,0.2162976
271.3163664,6700404.284,1604458.468,-2209.921904,5739.097293,6889826.162,6149.877443,-38938754.29,4.2e+10,0.3677416998,0.2444928
275.827932,6690350.972,1630330.765,-2246.763045,5730.1976,6886129.14,6154.925566,-38938754.29,4.2e+10,0.3677416998,0.21474
280.278312,6680271.149,1655812.502,-2283.108479,5721.264839,6882422.369,6159.988286,-38938754.29,4.2e+10,0.3677416998,0.212784
284.8646256,6669714.198,1682030.601,-2320.568153,5711.898924,6878540.138,6165.292035,-38938754.29,4.2e+10,0.3677416998,0.2444976
289.42924,6659036.601,1708081.634,-2357.854734,5702.415215,6874613.54,6170.657844,-38938754.29,4.2e+10,0.3677416998,0.2102
293.9657376,6648256.137,1733928.944,-2394.915737,5692.829143,6870649.114,6176.076832,-38938754.29,4.2e+10,0.3677416998,0.2250624
298.455208,6637421.896,1759465.141,-2431.596576,5683.1841,6866664.912,6181.524361,-38938754.29,4.2e+10,0.3677416998,0.209824
302.796072,6626789.681,1784114.556,-2467.067047,5673.708021,6862755.003,6186.871788,-38938754.29,4.2e+10,0.3677416998,0.216356
307.133064,6616013.176,1808700.585,-2502.509618,5664.092316,6858792.033,6192.293287,-38938754.29,4.2e+10,0.3677416998,0.213732
311.6337216,6604667.462,1834169.976,-2539.293633,5653.956701,6854619.741,6198.002786,-38938754.29,4.2e+10,0.3677416998,0.2191536
316.0375248,6593405.654,1859046.766,-2575.289936,5643.883833,6850478.304,6203.671733,-38938754.29,4.2e+10,0.3677416998,0.2176368
320.3964144,6582102.591,1883625.827,-2610.922889,5633.761811,6846321.696,6209.36313,-38938754.29,4.2e+10,0.3677416998,0.2165184
324.7626768,6570624.686,1908201.898,-2646.619859,5623.470633,6842100.792,6215.144297,-38938754.29,4.2e+10,0.3677416998,0.2168448
329.1468,6558943.002,1932832.954,-2682.466607,5612.983698,6837804.95,6221.029906,-38938754.29,4.2e+10,0.3677416998,0.216312
333.5319696,6547101.308,1957423.558,-2718.325656,5602.339661,6833450.265,6226.997996,-38938754.29,4.2e+10,0.3677416998,0.2162976
337.943256,6535030.425,1982113.179,-2754.402024,5591.475643,6829011.298,6233.083537,-38938754.29,4.2e+10,0.3677416998,0.215232
342.274552,6523023.576,2006308.137,-2789.827853,5580.655237,6824595.879,6239.138748,-38938754.29,4.2e+10,0.3677416998,0.209888
346.61376,6510840.926,2030499.965,-2825.321979,5569.662081,6820115.811,6245.28462,-38938754.29,4.2e+10,0.3677416998,0.211644
350.989104,6498400.867,2054844.62,-2861.115292,5558.421737,6815541.082,6251.562438,-38938754.29,4.2e+10,0.3677416998,0.215176
355.3846992,6485745.526,2079252.084,-2897.077877,5546.971377,6810887.185,6257.951077,-38938754.29,4.2e+10,0.3677416998,0.2266176
359.7983664,6472879.092,2103708.903,-2933.191909,5535.313971,6806155.661,6264.448542,-38938754.29,4.2e+10,0.3677416998,0.2174832
364.309668,6459563.309,2128653.185,-2970.10849,5523.232361,6801258.893,6271.17534,-38938754.29,4.2e+10,0.3677416998,0.209652
368.6957856,6446457.344,2152852.675,-3006.004183,5511.324121,6796439.283,6277.798557,-38938754.29,4.2e+10,0.3677416998,0.2180064
373.0636656,6433249.404,2176899.289,-3041.754007,5499.306128,6791582.172,6284.47574,-38938754.29,4.2e+10,0.3677416998,0.2165424
377.5189968,6419616.143,2201372.906,-3078.223017,5486.883089,6786568.654,6291.370516,-38938754.29,4.2e+10,0.3677416998,0.2173152
382.0687872,6405526.144,2226307.889,-3115.468723,5474.024555,6781387.174,6298.499043,-38938754.29,4.2e+10,0.3677416998,0.2265648
386.6216688,6391256.932,2251200.851,-3152.743206,5460.98243,6776139.79,6305.721118,-38938754.29,4.2e+10,0.3677416998,0.2264832
391.1686224,6376836.917,2276001.74,-3189.972545,5447.781932,6770836.948,6313.022479,-38938754.29,4.2e+10,0.3677416998,0.2255616
395.7189264,6362236.801,2300760.415,-3227.232625,5434.395482,6765467.877,6320.418077,-38938754.29,4.2e+10,0.3677416998,0.2239296
400.3064016,6347345.782,2325659.271,-3264.800342,5420.720408,6759991.828,6327.964208,-38938754.29,4.2e+10,0.3677416998,0.2320944
404.8810944,6332324.626,2350425.866,-3302.266549,5406.903358,6754467.923,6335.579554,-38938754.29,4.2e+10,0.3677416998,0.2287296
409.410024,6317284.895,2374882.04,-3339.360978,5393.046562,6748937.187,6343.207624,-38938754.29,4.2e+10,0.3677416998,0.22404
413.884056,6302262.507,2398979.755,-3376.008614,5379.183054,6743412.828,6350.830221,-38938754.29,4.2e+10,0.3677416998,0.217824
418.283016,6287332.322,2422612.273,-3412.043981,5365.382112,6737922.377,6358.40934,-38938754.29,4.2e+10,0.3677416998,0.217416
422.7314784,6272072.915,2446448.613,-3448.487436,5351.253589,6732310.857,6366.159012,-38938754.29,4.2e+10,0.3677416998,0.2188176
427.1730048,6256675.557,2470184.698,-3484.876542,5336.973444,6726648.606,6373.982276,-38938754.29,4.2e+10,0.3677416998,0.2199552
431.562312,6241300.436,2493579.029,-3520.840131,5322.689914,6720994.533,6381.7978,-38938754.29,4.2e+10,0.3677416998,0.224304
436.364136,6224299.516,2519099.745,-3560.186152,5306.868008,6714742.586,6390.44392,-38938754.29,4.2e+10,0.3677416998,0.211176
440.737692,6208650.471,2542277.787,-3596.025088,5292.278161,6708987.779,6398.406408,-38938754.29,4.2e+10,0.3677416998,0.212836
445.141004,6192736.606,2565548.681,-3632.10978,5277.415725,6703135.587,6406.507488,-38938754.29,4.2e+10,0.3677416998,0.212836
449.528636,6176721.36,2588671.232,-3668.067757,5262.432385,6697246.114,6414.664113,-38938754.29,4.2e+10,0.3677416998,0.213116
454.076208,6159955.813,2612566.864,-3705.338217,5246.718829,6691080.723,6423.207126,-38938754.29,4.2e+10,0.3677416998,0.2271024
458.447336,6143681.006,2635467.609,-3741.164104,5231.437497,6685095.798,6431.504267,-38938754.29,4.2e+10,0.3677416998,0.21202
462.997256,6126574.17,2659233.694,-3778.456778,5215.345401,6678804.901,6440.230064,-38938754.29,4.2e+10,0.3677416998,0.216928
467.403632,6109845.296,2682179.797,-3814.574116,5199.579504,6672652.996,6448.767533,-38938754.29,4.2e+10,0.3677416998,0.215696
471.804636,6092977.959,2705028.188,-3850.64843,5183.653653,6666450.173,6457.38016,-38938754.29,4.2e+10,0.3677416998,0.221372
476.3220432,6075499.374,2728407.588,-3887.677748,5167.119376,6660022.568,6466.309683,-38938754.29,4.2e+10,0.3677416998,0.2273472
480.948888,6057423.951,2752275.49,-3925.604838,5149.986904,6653375.482,6475.549278,-38938754.29,4.2e+10,0.3677416998,0.2268
485.506584,6039447.099,2775708.732,-3962.965592,5132.913873,6646764.643,6484.74372,-38938754.29,4.2e+10,0.3677416998,0.227808
490.1047632,6021138.013,2799270.809,-4000.658472,5115.49037,6640031.629,6494.113483,-38938754.29,4.2e+10,0.3677416998,0.2274432
494.7064944,6002641.265,2822770.415,-4038.380514,5097.852363,6633229.603,6503.58485,-38938754.29,4.2e+10,0.3677416998,0.2264064
499.3072272,5983975,2846183.319,-4076.094179,5080.016,6626365.239,6513.148725,-38938754.29,4.2e+10,0.3677416998,0.2276592
503.8703808,5965289.813,2869323.468,-4113.499359,5062.124507,6619493.917,6522.728072,-38938754.29,4.2e+10,0.3677416998,0.2262768
508.4506992,5946362.692,2892468.096,-4151.044555,5043.963447,6612533.625,6532.437382,-38938754.29,4.2e+10,0.3677416998,0.2271552
512.9879856,5927443.839,2915312.809,-4188.236077,5025.772075,6605576.374,6542.148453,-38938754.29,4.2e+10,0.3677416998,0.2232096
517.5284352,5908342.874,2938090.365,-4225.452329,5007.366676,6598552.153,6551.959128,-38938754.29,4.2e+10,0.3677416998,0.2238432
522.075456,5889044.923,2960816.676,-4262.720968,4988.731629,6591455.492,6561.877271,-38938754.29,4.2e+10,0.3677416998,0.223056
526.5844128,5869741.184,2983268.612,-4299.675887,4970.050803,6584356.702,6571.804754,-38938754.29,4.2e+10,0.3677416998,0.2229168
531.121824,5850147.421,3005776.742,-4336.861979,4951.048075,6577151.258,6581.887941,-38938754.29,4.2e+10,0.3677416998,0.227256
535.6999008,5830207.055,3028398.735,-4374.37897,4931.666404,6569818.354,6592.156316,-38938754.29,4.2e+10,0.3677416998,0.2300688
540.2944128,5810022.428,3051012.246,-4412.027927,4912.003201,6562395.625,6602.557525,-38938754.29,4.2e+10,0.3677416998,0.2274768
544.8704688,5789746.951,3073444.633,-4449.522612,4892.206662,6554939.487,6613.01274,-38938754.29,4.2e+10,0.3677416998,0.2224608
549.3586368,5769694.227,3095357.719,-4486.2939,4872.583267,6547565.264,6623.360223,-38938754.29,4.2e+10,0.3677416998,0.2226048
553.8580272,5749425.715,3117236.729,-4523.153544,4852.703735,6540111.687,6633.826311,-38938754.29,4.2e+10,0.3677416998,0.2239872
558.3648816,5728957.33,3139061.894,-4560.070391,4832.582128,6532584.608,6644.403058,-38938754.29,4.2e+10,0.3677416998,0.2238816
562.8697728,5708331.6,3160786.453,-4596.966855,4812.258882,6524999.667,6655.068731,-38938754.29,4.2e+10,0.3677416998,0.2225568
567.4045584,5687401.135,3182562.225,-4634.103451,4791.587011,6517302.662,6665.899855,-38938754.29,4.2e+10,0.3677416998,0.2238384
571.9449744,5666275.975,3204270.627,-4671.281032,4770.673281,6509534.06,6676.839824,-38938754.29,4.2e+10,0.3677416998,0.2243424
576.4532544,5645133.332,3225730.945,-4708.190016,4749.692203,6501759.029,6687.79704,-38938754.29,4.2e+10,0.3677416998,0.2241744
580.9786128,5623743.266,3247176.942,-4745.232938,4728.414467,6493893.009,6698.890879,-38938754.29,4.2e+10,0.3677416998,0.2243088
585.485688,5602273.016,3268440.096,-4782.11993,4707.005067,6485997.503,6710.034853,-38938754.29,4.2e+10,0.3677416998,0.225336
590.0505264,5580358.154,3289876.899,-4819.472856,4685.098495,6477938.494,6721.41849,-38938754.29,4.2e+10,0.3677416998,0.2305104
594.7131312,5557797.925,3311669.046,-4857.61823,4662.489788,6469642.157,6733.146805,-38938754.29,4.2e+10,0.3677416998,0.2306352
599.235984,5535743.97,3332706.778,-4894.612516,4640.332326,6461531.999,6744.621248,-38938754.29,4.2e+10,0.3677416998,0.22224
603.6897504,5513863.4,3353324.739,-4931.033789,4618.294027,6453485.601,6756.01465,-38938754.29,4.2e+10,0.3677416998,0.2222064
608.1582624,5491747.388,3373911.829,-4967.567278,4595.962672,6445352.621,6767.539992,-38938754.29,4.2e+10,0.3677416998,0.2353344
612.703464,5469084.359,3394749.355,-5004.718669,4573.020433,6437018.48,6779.360209,-38938754.29,4.2e+10,0.3677416998,0.212688
617.116752,5446917.511,3414881.847,-5040.78257,4550.522943,6428866.806,6790.931304,-38938754.29,4.2e+10,0.3677416998,0.226572
621.492624,5424781.472,3434745.153,-5076.531227,4527.999717,6420726.461,6802.49592,-38938754.29,4.2e+10,0.3677416998,0.215448
625.953768,5402053.061,3454893.579,-5112.966278,4504.814255,6412368.276,6814.380063,-38938754.29,4.2e+10,0.3677416998,0.227316
630.377296,5379355.825,3474769.489,-5149.08339,4481.6002,6404021.556,6826.258134,-38938754.29,4.2e+10,0.3677416998,0.213848
634.9512384,5355718.829,3495212.727,-5186.416809,4457.360576,6395329.247,6838.638945,-38938754.29,4.2e+10,0.3677416998,0.2282544
639.587292,5331586.632,3515819.863,-5224.244346,4432.545055,6386454.832,6851.290729,-38938754.29,4.2e+10,0.3677416998,0.228492
644.014908,5308375.73,3535392.571,-5260.358489,4408.611762,6377919.215,6863.470631,-38938754.29,4.2e+10,0.3677416998,0.221868
647.5914,5289509.947,3551125.109,-5289.520949,4389.111576,6370981.481,6873.378521,-38938754.29,4.2e+10,0.3677416998,0.232368
