t,x,y,vx,vy,r,v,energy,h,e,dt_eff
0,7000000,0,0,7600,7000000,7600,-28058754.29,5.32e+10,0.0144233172,0
21.834888,6998061.075,165929.8269,-177.5902236,7597.89489,7000027.966,7599.970069,-28058754.29,5.32e+10,0.0144233172,1.0917444
30.588216,6996195.066,232428.3195,-248.7608124,7595.868961,7000054.88,7599.941264,-28058754.29,5.32e+10,0.0144233172,0.4376664
35.348832,6994918.695,268586.1157,-287.4586227,7594.483213,7000073.289,7599.921561,-28058754.29,5.32e+10,0.0144233172,0.219744
39.978552,6993500.74,303742.9558,-325.0848482,7592.943755,7000093.741,7599.899672,-28058754.29,5.32e+10,0.0144233172,0.2488354285
44.72765486,6991865.246,339798.4891,-363.6725261,7591.16813,7000117.33,7599.874425,-28058754.29,5.32e+10,0.0144233172,0.2431645714
49.62970971,6989984.899,377005.8946,-403.4925382,7589.126686,7000144.451,7599.845399,-28058754.29,5.32e+10,0.0144233172,0.2405074286
54.282675,6988019.55,412312.9476,-441.2783101,7586.992975,7000172.798,7599.815061,-28058754.29,5.32e+10,0.0144233172,0.229155
58.992912,6985850.962,448044.0147,-479.5173748,7584.638635,7000204.076,7599.781585,-28058754.29,5.32e+10,0.0144233172,0.238776
63.630936,6983539.656,483216.0049,-517.1575986,7582.129376,7000237.413,7599.745907,-28058754.29,5.32e+10,0.0144233172,0.237987
68.51797029,6980915.406,520263.2553,-556.8040756,7579.280398,7000275.263,7599.705398,-28058754.29,5.32e+10,0.0144233172,0.2493977143
73.13478,6978258.316,555248.764,-594.243547,7576.395801,7000313.587,7599.664382,-28058754.29,5.32e+10,0.0144233172,0.224355
77.636568,6975501.013,589349.4209,-630.735489,7573.402442,7000353.357,7599.62182,-28058754.29,5.32e+10,0.0144233172,0.2208
82.105596,6972601.318,623188.1998,-666.9465545,7570.254539,7000395.18,7599.57706,-28058754.29,5.32e+10,0.0144233172,0.227625
86.58732,6969530.903,657108.588,-703.2442789,7566.921343,7000439.465,7599.529665,-28058754.29,5.32e+10,0.0144233172,0.220782
91.378092,6966068.915,693351.0609,-742.0260485,7563.163112,7000489.399,7599.476226,-28058754.29,5.32e+10,0.0144233172,0.243375
96.150192,6962435.759,729433.9006,-780.6361507,7559.219123,7000541.801,7599.420145,-28058754.29,5.32e+10,0.0144233172,0.230685
100.9122994,6958626.588,765421.9474,-819.1439319,7555.084124,7000596.742,7599.361348,-28058754.29,5.32e+10,0.0144233172,0.2453382857
105.788748,6954535.976,802253.1846,-858.5529743,7550.643684,7000655.742,7599.298207,-28058754.29,5.32e+10,0.0144233172,0.242382
110.498046,6950403.227,837800.9289,-896.5877215,7546.157577,7000715.35,7599.234417,-28058754.29,5.32e+10,0.0144233172,0.224505
114.9993154,6946285.665,871758.2245,-932.9198176,7541.688033,7000774.739,7599.170861,-28058754.29,5.32e+10,0.0144233172,0.2479097143
119.722542,6941789.288,907367.8764,-971.0188082,7536.807378,7000839.592,7599.101459,-28058754.29,5.32e+10,0.0144233172,0.237543
124.6398,6936917.076,944415.387,-1010.655019,7531.518869,7000909.865,7599.026256,-28058754.29,5.32e+10,0.0144233172,0.249312
129.5542697,6931852.962,981415.3881,-1050.239178,7526.022175,7000982.906,7598.948093,-28058754.29,5.32e+10,0.0144233172,0.2457222857
134.182389,6926906.122,1016234.364,-1087.488823,7520.652882,7001054.256,7598.87174,-28058754.29,5.32e+10,0.0144233172,0.241887
138.904242,6921681.491,1051732.47,-1125.463806,7514.982196,7001129.613,7598.7911,-28058754.29,5.32e+10,0.0144233172,0.246699
143.472387,6916456.35,1086049.114,-1162.173697,7509.311077,7001204.977,7598.710453,-28058754.29,5.32e+10,0.0144233172,0.219945
148.141932,6910941.975,1121100.28,-1199.668081,7503.32617,7001284.512,7598.625344,-28058754.29,5.32e+10,0.0144233172,0.2295
152.705055,6905384.204,1155325.187,-1236.277348,7497.294301,7001364.674,7598.539565,-28058754.29,5.32e+10,0.0144233172,0.236733
157.541028,6899311.854,1191566.047,-1275.041608,7490.704117,7001452.257,7598.445846,-28058754.29,5.32e+10,0.0144233172,0.240972
162.320634,6893126.169,1227352.698,-1313.318569,7483.991101,7001541.475,7598.350378,-28058754.29,5.32e+10,0.0144233172,0.247782
167.195739,6886628.513,1263820.836,-1352.322896,7476.939703,7001635.193,7598.250097,-28058754.29,5.32e+10,0.0144233172,0.243549
171.9460903,6880114.306,1299322.213,-1390.291685,7469.870535,7001729.149,7598.149562,-28058754.29,5.32e+10,0.0144233172,0.2482594286
176.845008,6873207.551,1335898.22,-1429.408152,7462.375581,7001828.768,7598.042971,-28058754.29,5.32e+10,0.0144233172,0.247158
181.7208507,6866143.152,1372264.984,-1468.299143,7454.70978,7001930.66,7597.933948,-28058754.29,5.32e+10,0.0144233172,0.2230213333
186.321609,6859303.52,1406545.3,-1504.957268,7447.288093,7002029.31,7597.828395,-28058754.29,5.32e+10,0.0144233172,0.224373
190.8970389,6852334.365,1440602.613,-1541.375347,7439.726075,7002129.828,7597.720845,-28058754.29,5.32e+10,0.0144233172,0.2484788571
195.816624,6844655.207,1477182.569,-1580.489136,7431.393907,7002240.587,7597.602339,-28058754.29,5.32e+10,0.0144233172,0.2421668572
200.7237463,6836803.922,1513628.512,-1619.45773,7422.875247,7002353.829,7597.48118,-28058754.29,5.32e+10,0.0144233172,0.2485337143
205.275498,6829350.368,1547397.259,-1655.56209,7414.788381,7002461.334,7597.36616,-28058754.29,5.32e+10,0.0144233172,0.219705
209.780055,6821812.397,1580779.242,-1691.251252,7406.610177,7002570.056,7597.249839,-28058754.29,5.32e+10,0.0144233172,0.230379
214.29855,6814089.685,1614227.11,-1727.009138,7398.231805,7002681.443,7597.130669,-28058754.29,5.32e+10,0.0144233172,0.224934
218.8780149,6806098.009,1648087.27,-1763.205999,7389.561915,7002796.71,7597.007351,-28058754.29,5.32e+10,0.0144233172,0.2491405714
223.740366,6797431.344,1683995.139,-1801.58987,7380.160075,7002921.712,7596.873619,-28058754.29,5.32e+10,0.0144233172,0.239727
228.59832,6788586.258,1719824.392,-1839.887591,7370.565025,7003049.287,7596.737137,-28058754.29,5.32e+10,0.0144233172,0.243816
233.3666293,6779723.583,1754946.683,-1877.427546,7360.951246,7003177.117,7596.600386,-28058754.29,5.32e+10,0.0144233172,0.2234106667
238.148697,6770655.683,1790123.809,-1915.023982,7351.115211,7003307.906,7596.460471,-28058754.29,5.32e+10,0.0144233172,0.244317
242.943006,6761384.217,1825343.298,-1952.663513,7341.058747,7003441.631,7596.317418,-28058754.29,5.32e+10,0.0144233172,0.238854
247.716852,6751973.15,1860364.094,-1990.088487,7330.851255,7003577.37,7596.172214,-28058754.29,5.32e+10,0.0144233172,0.234732
252.453048,6742459.88,1895060.084,-2027.164134,7320.533313,7003714.583,7596.025435,-28058754.29,5.32e+10,0.0144233172,0.24576
257.320578,6732499.978,1930666.791,-2065.210614,7309.731394,7003858.238,7595.871769,-28058754.29,5.32e+10,0.0144233172,0.239562
262.02972,6722688.05,1965064.373,-2101.962813,7299.090393,7003999.758,7595.720389,-28058754.29,5.32e+10,0.0144233172,0.247341
266.6247326,6712947.217,1998579.583,-2137.770017,7288.526918,7004140.253,7595.570109,-28058754.29,5.32e+10,0.0144233172,0.2429108572
271.3128,6702839.683,2032723.069,-2174.24616,7277.566222,7004286.038,7595.414175,-28058754.29,5.32e+10,0.0144233172,0.245538
276.073716,6692400.218,2067344.079,-2211.230033,7266.246056,7004436.609,7595.253123,-28058754.29,5.32e+10,0.0144233172,0.225525
280.527024,6682476.002,2099679.011,-2245.769565,7255.485058,7004579.749,7595.100023,-28058754.29,5.32e+10,0.0144233172,0.221997
285.064524,6672206.084,2132575.577,-2280.906758,7244.349672,7004727.876,7594.941594,-28058754.29,5.32e+10,0.0144233172,0.224037
289.6871897,6661579.588,2166037.222,-2316.645137,7232.828155,7004881.145,7594.777667,-28058754.29,5.32e+10,0.0144233172,0.2392217143
294.504864,6650329.154,2200853.329,-2353.827534,7220.630698,7005043.414,7594.60412,-28058754.29,5.32e+10,0.0144233172,0.238792
299.099889,6639431.896,2234005.232,-2389.230111,7208.816685,7005200.588,7594.436024,-28058754.29,5.32e+10,0.0144233172,0.224049
303.548295,6628727.508,2266047.225,-2423.445059,7197.212284,7005354.981,7594.270907,-28058754.29,5.32e+10,0.0144233172,0.219675
308.041857,6617760.064,2298361.696,-2457.948564,7185.323238,7005513.168,7594.101736,-28058754.29,5.32e+10,0.0144233172,0.219249
312.6089417,6606454.441,2331149.756,-2492.955238,7173.06816,7005676.232,7593.927353,-28058754.29,5.32e+10,0.0144233172,0.2478171429
317.3451154,6594561.534,2365092.199,-2529.191704,7160.177092,7005847.768,7593.743916,-28058754.29,5.32e+10,0.0144233172,0.2442891429
321.87552,6583024.877,2397502.437,-2563.7898,7147.672777,7006014.164,7593.565978,-28058754.29,5.32e+10,0.0144233172,0.225033
326.4022267,6571341.229,2429829.258,-2598.296266,7135.009746,7006182.681,7593.385777,-28058754.29,5.32e+10,0.0144233172,0.2302186667
331.030938,6559232.933,2462824.856,-2633.513898,7121.887116,7006357.323,7593.199032,-28058754.29,5.32e+10,0.0144233172,0.241011
335.642976,6547006.277,2495640.782,-2668.537004,7108.636873,7006533.672,7593.010466,-28058754.29,5.32e+10,0.0144233172,0.221064
340.171044,6534845.236,2527799.4,-2702.855885,7095.4584,7006709.075,7592.822916,-28058754.29,5.32e+10,0.0144233172,0.230739
344.8839566,6522022.878,2561207.004,-2738.504768,7081.563997,7006894.016,7592.625173,-28058754.29,5.32e+10,0.0144233172,0.2491405714
349.479006,6509359.593,2593715.682,-2773.191548,7067.842686,7007076.662,7592.429888,-28058754.29,5.32e+10,0.0144233172,0.222885
353.9725886,6496821.943,2625445.157,-2807.044147,7054.258212,7007257.497,7592.236545,-28058754.29,5.32e+10,0.0144233172,0.2491782857
358.6586907,6483585.272,2658468.598,-2842.274342,7039.917114,7007448.413,7592.032429,-28058754.29,5.32e+10,0.0144233172,0.2316346667
363.157158,6470723.459,2690106.156,-2876.023173,7025.982898,7007633.923,7591.834098,-28058754.29,5.32e+10,0.0144233172,0.220983
367.60515,6457856.843,2721326.731,-2909.3244,7012.044219,7007819.503,7591.635699,-28058754.29,5.32e+10,0.0144233172,0.221445
372.1035703,6444693.86,2752837.843,-2942.932668,6997.785242,7008009.357,7591.432735,-28058754.29,5.32e+10,0.0144233172,0.2492811429
376.87773,6430558.842,2786209.911,-2978.522566,6982.474154,7008213.23,7591.21479,-28058754.29,5.32e+10,0.0144233172,0.249006
381.520512,6416650.018,2818593.111,-3013.054703,6967.408951,7008413.842,7591.000338,-28058754.29,5.32e+10,0.0144233172,0.219564
385.941384,6403257.14,2849363.128,-3045.863667,6952.903405,7008607.012,7590.793848,-28058754.29,5.32e+10,0.0144233172,0.222444
390.4422,6389473.237,2880623.333,-3079.192322,6937.975182,7008805.821,7590.581334,-28058754.29,5.32e+10,0.0144233172,0.227256
395.136924,6374935.83,2913158.325,-3113.876881,6922.231818,7009015.499,7590.35721,-28058754.29,5.32e+10,0.0144233172,0.240066
399.777783,6360405.364,2945246.981,-3148.082336,6906.496912,7009225.076,7590.1332,-28058754.29,5.32e+10,0.0144233172,0.240303
404.478504,6345525.837,2977674.696,-3182.645858,6890.384987,7009439.688,7589.903815,-28058754.29,5.32e+10,0.0144233172,0.244458
409.262064,6330217.507,3010595.694,-3217.731647,6873.809772,7009660.485,7589.667828,-28058754.29,5.32e+10,0.0144233172,0.231369
413.9732571,6314976.924,3042940.738,-3252.200118,6857.308948,7009880.305,7589.432892,-28058754.29,5.32e+10,0.0144233172,0.2460274286
418.8059794,6299174.688,3076038.943,-3287.467557,6840.201122,7010108.226,7589.189306,-28058754.29,5.32e+10,0.0144233172,0.2447211429
423.6887006,6283036.1,3109395.161,-3323.006142,6822.730301,7010340.998,7588.940544,-28058754.29,5.32e+10,0.0144233172,0.2409942857
428.536407,6266841.809,3142427.339,-3358.195692,6805.200346,7010574.573,7588.690931,-28058754.29,5.32e+10,0.0144233172,0.223575
433.3117886,6250722.56,3174883.179,-3392.767531,6787.752781,7010807.066,7588.442484,-28058754.29,5.32e+10,0.0144233172,0.2485817143
438.183312,6234108.903,3207906.151,-3427.939624,6769.771278,7011046.69,7588.186425,-28058754.29,5.32e+10,0.0144233172,0.239712
443.0701817,6217270.997,3240944.69,-3463.124348,6751.548316,7011289.549,7587.926918,-28058754.29,5.32e+10,0.0144233172,0.2448925714
448.00356,6200098.685,3274206.869,-3498.543192,6732.964742,7011537.23,7587.662268,-28058754.29,5.32e+10,0.0144233172,0.24564
452.743392,6183435.723,3306077.327,-3532.476211,6714.933631,7011777.566,7587.405476,-28058754.29,5.32e+10,0.0144233172,0.220848
457.342272,6167114.757,3336917.956,-3565.309097,6697.273796,7012012.968,7587.153963,-28058754.29,5.32e+10,0.0144233172,0.22716
462.0569314,6150226.376,3368450.313,-3598.874628,6679.001247,7012256.555,7586.893715,-28058754.29,5.32e+10,0.0144233172,0.2477142857
466.982796,6132412.643,3401302.778,-3633.841273,6659.72888,7012513.488,7586.619217,-28058754.29,5.32e+10,0.0144233172,0.238524
471.648939,6115379.532,3432335.099,-3666.866732,6641.302375,7012759.162,7586.356758,-28058754.29,5.32e+10,0.0144233172,0.245205
476.140104,6098839.818,3462122.164,-3698.563332,6623.410864,7012997.719,7586.101911,-28058754.29,5.32e+10,0.0144233172,0.23082
480.830106,6081416.115,3493141.845,-3731.567743,6604.564432,7013249.027,7585.833452,-28058754.29,5.32e+10,0.0144233172,0.242367
485.44809,6064108.943,3523598.457,-3763.969211,6585.845384,7013498.654,7585.566798,-28058754.29,5.32e+10,0.0144233172,0.248805
490.391526,6045416.489,3556105.27,-3798.547534,6565.629543,7013768.261,7585.278812,-28058754.29,5.32e+10,0.0144233172,0.247329
494.903082,6028208.126,3585684.554,-3830.00789,6547.020116,7014016.462,7585.013701,-28058754.29,5.32e+10,0.0144233172,0.222729
499.5498103,6010336.025,3616061.939,-3862.3132,6527.694305,7014274.237,7584.738374,-28058754.29,5.32e+10,0.0144233172,0.2483417142
504.190842,5992336.227,3646312.074,-3894.479203,6508.231846,7014533.854,7584.46109,-28058754.29,5.32e+10,0.0144233172,0.246174
508.920984,5973837.454,3677049.697,-3927.159443,6488.231367,7014800.668,7584.17613,-28058754.29,5.32e+10,0.0144233172,0.226896
513.519261,5955706.439,3706839.376,-3958.827806,6468.629976,7015062.177,7583.896846,-28058754.29,5.32e+10,0.0144233172,0.249735
518.3504347,5936500.499,3738040.368,-3991.992183,6447.86808,7015339.191,7583.601016,-28058754.29,5.32e+10,0.0144233172,0.2306186667
523.0067575,5917838.282,3768016.82,-4023.850759,6427.695528,7015608.362,7583.313572,-28058754.29,5.32e+10,0.0144233172,0.2427766154
527.757519,5898644.928,3798504.056,-4056.247905,6406.950468,7015885.194,7583.017959,-28058754.29,5.32e+10,0.0144233172,0.241137
532.424106,5879642.049,3828354.789,-4087.964429,6386.412895,7016159.278,7582.725291,-28058754.29,5.32e+10,0.0144233172,0.236289
537.076911,5860548.186,3858021.58,-4119.481298,6365.778605,7016434.675,7582.431234,-28058754.29,5.32e+10,0.0144233172,0.232947
541.787952,5841066.185,3887961.498,-4151.284005,6344.726535,7016715.67,7582.131211,-28058754.29,5.32e+10,0.0144233172,0.246399
546.5774667,5821106.346,3918298.078,-4183.503566,6323.159865,7017003.557,7581.823842,-28058754.29,5.32e+10,0.0144233172,0.2234106667
551.11245,5802065.253,3946926.911,-4213.905182,6302.587552,7017278.193,7581.530633,-28058754.29,5.32e+10,0.0144233172,0.231255
555.928446,5781693.585,3977227.218,-4246.077273,6280.579447,7017572.02,7581.216947,-28058754.29,5.32e+10,0.0144233172,0.2364749999
560.608752,5761747.698,4006571.891,-4277.230223,6259.033111,7017859.706,7580.909831,-28058754.29,5.32e+10,0.0144233172,0.24132
565.1299307,5742341.747,4034822.767,-4307.21776,6238.071731,7018139.604,7580.611041,-28058754.29,5.32e+10,0.0144233172,0.2245813334
569.720769,5722498.317,4063411.607,-4337.559771,6216.639536,7018425.812,7580.305527,-28058754.29,5.32e+10,0.0144233172,0.226827
574.264482,5702721.669,4091609.765,-4367.482883,6195.281208,7018711.057,7580.001054,-28058754.29,5.32e+10,0.0144233172,0.229158
578.869284,5682540.664,4120087.689,-4397.698525,6173.487974,7019002.134,7579.690368,-28058754.29,5.32e+10,0.0144233172,0.246324
583.6654267,5661373.439,4149641.871,-4429.051415,6150.631675,7019307.436,7579.364514,-28058754.29,5.32e+10,0.0144233172,0.2243306667
588.4182667,5640249.269,4178820.7,-4460.001364,6127.823848,7019612.116,7579.039337,-28058754.29,5.32e+10,0.0144233172,0.2255013333
593.068092,5619440.871,4207261.84,-4490.164246,6105.358896,7019912.242,7578.719035,-28058754.29,5.32e+10,0.0144233172,0.241803
597.703088,5598559.521,4235507.97,-4520.115759,6082.817116,7020213.421,7578.397624,-28058754.29,5.32e+10,0.0144233172,0.228344
602.240616,5577983.057,4263058.586,-4549.325333,6060.606358,7020510.201,7578.080919,-28058754.29,5.32e+10,0.0144233172,0.225288
606.89778,5556726.517,4291230.456,-4579.188985,6037.66348,7020816.791,7577.753761,-28058754.29,5.32e+10,0.0144233172,0.222831
611.341512,5536314.721,4318011.319,-4607.573738,6015.634249,7021111.197,7577.439618,-28058754.29,5.32e+10,0.0144233172,0.220164
616.054365,5514529.197,4346306.779,-4637.559122,5992.124472,7021425.417,7577.104348,-28058754.29,5.32e+10,0.0144233172,0.236169
620.750592,5492680.245,4374391.854,-4667.316741,5968.54836,7021740.551,7576.768116,-28058754.29,5.32e+10,0.0144233172,0.240234
625.277304,5471487.945,4401358.053,-4695.884276,5945.68283,7022046.214,7576.442005,-28058754.29,5.32e+10,0.0144233172,0.224568
629.809296,5450141.642,4428251.706,-4724.370434,5922.65315,7022354.099,7576.113538,-28058754.29,5.32e+10,0.0144233172,0.223578
634.58322,5427516.478,4456467.804,-4754.252421,5898.245963,7022680.429,7575.765408,-28058754.29,5.32e+10,0.0144233172,0.229203
639.066024,5406141.423,4482856.855,-4782.194868,5875.189431,7022988.728,7575.436529,-28058754.29,5.32e+10,0.0144233172,0.22107
643.582296,5384480.379,4509338.102,-4810.230385,5851.826477,7023301.152,7575.103265,-28058754.29,5.32e+10,0.0144233172,0.220668
648.2490274,5361964.966,4536590.401,-4839.077382,5827.544229,7023625.899,7574.756871,-28058754.29,5.32e+10,0.0144233172,0.2454034285
652.807662,5339841.382,4563101.719,-4867.135277,5803.686745,7023944.994,7574.416522,-28058754.29,5.32e+10,0.0144233172,0.221577
657.3951733,5317448.81,4589670.866,-4895.249599,5779.541399,7024267.97,7574.07205,-28058754.29,5.32e+10,0.0144233172,0.2257306667
662.15286,5294089.641,4617108.259,-4924.277573,5754.356161,7024604.886,7573.712726,-28058754.29,5.32e+10,0.0144233172,0.249462
666.867282,5270806.972,4644177.612,-4952.911034,5729.255808,7024940.7,7573.354595,-28058754.29,5.32e+10,0.0144233172,0.225831
671.48385,5247877.043,4670570.108,-4980.823547,5704.538079,7025271.425,7573.001908,-28058754.29,5.32e+10,0.0144233172,0.230805
676.009206,5225275.365,4696330.101,-5008.062319,5680.176471,7025597.416,7572.654286,-28058754.29,5.32e+10,0.0144233172,0.221781
680.750856,5201461.478,4723202.717,-5036.472452,5654.510709,7025940.892,7572.288037,-28058754.29,5.32e+10,0.0144233172,0.2379288
685.405872,5177951.955,4749465.639,-5064.232873,5629.175441,7026279.977,7571.926487,-28058754.29,5.32e+10,0.0144233172,0.2322312
690.078128,5154225.725,4775706.915,-5091.965268,5603.609115,7026622.188,7571.561623,-28058754.29,5.32e+10,0.0144233172,0.2454826667
695.0035093,5129074.15,4803240.152,-5121.05743,5576.50962,7026984.957,7571.174858,-28058754.29,5.32e+10,0.0144233172,0.2443226666
699.7983168,5104452.052,4829914.904,-5149.236944,5549.983319,7027340.089,7570.796256,-28058754.29,5.32e+10,0.0144233172,0.2383848
704.671256,5079290.647,4856893.656,-5177.73196,5522.878772,7027703,7570.40938,-28058754.29,5.32e+10,0.0144233172,0.2427733334
709.347944,5055012.33,4882661.34,-5204.942464,5496.728166,7028053.174,7570.036102,-28058754.29,5.32e+10,0.0144233172,0.222992
713.960514,5030942.528,4907955.647,-5231.647898,5470.804726,7028400.341,7569.666048,-28058754.29,5.32e+10,0.0144233172,0.236121
718.54446,5006900.357,4932974.227,-5258.057096,5444.913602,7028747.108,7569.296438,-28058754.29,5.32e+10,0.0144233172,0.223302
723.099072,4982892.436,4957714.872,-5284.167821,5419.061911,7029093.382,7568.927372,-28058754.29,5.32e+10,0.0144233172,0.223788
727.59333,4959086.364,4982011.981,-5309.805457,5393.430086,7029436.745,7568.561428,-28058754.29,5.32e+10,0.0144233172,0.223035
732.090714,4935148.676,5006210.402,-5335.33397,5367.659076,7029782.006,7568.193478,-28058754.29,5.32e+10,0.0144233172,0.227529
736.626498,4910890.608,5030497.768,-5360.95124,5341.54573,7030131.887,7567.820623,-28058754.29,5.32e+10,0.0144233172,0.225903
741.20781,4886271.4,5054908.402,-5386.693328,5315.046282,7030486.978,7567.442235,-28058754.29,5.32e+10,0.0144233172,0.225069
745.858206,4861160.649,5079562.681,-5412.686981,5288.020508,7030849.158,7567.056313,-28058754.29,5.32e+10,0.0144233172,0.224949
