t,x,y,vx,vy,r,v,energy,h,e,dt_eff
0,7000000,0,0,7600,7000000,7600,-28058754.29,5.32e+10,0.0144233172,0
26.052384,6997239.771,197972.093,-211.8838393,7597.003197,7000039.812,7599.957391,-28058754.29,5.32e+10,0.0144233172,1.3026192
36.575088,6994560.087,277898.6589,-297.4253026,7594.093874,7000078.462,7599.916025,-28058754.29,5.32e+10,0.0144233172,0.5261352
41.29449,6993065.912,313734.4901,-335.7781169,7592.47167,7000100.013,7599.89296,-28058754.29,5.32e+10,0.0144233172,0.22341
46.04887543,6991377.664,349827.7486,-374.4060592,7590.638773,7000124.363,7599.866899,-28058754.29,5.32e+10,0.0144233172,0.2392662857
50.58345257,6989596.377,384243.7695,-411.2385826,7588.70488,7000150.055,7599.839402,-28058754.29,5.32e+10,0.0144233172,0.2305542857
55.138344,6987638.99,418804.726,-448.2257904,7586.579816,7000178.287,7599.809186,-28058754.29,5.32e+10,0.0144233172,0.2355085715
59.83411543,6985444.719,454424.0536,-486.3451797,7584.197597,7000209.935,7599.775314,-28058754.29,5.32e+10,0.0144233172,0.2344765715
64.62474,6983021.696,490750.8767,-525.2211671,7581.567058,7000244.883,7599.737911,-28058754.29,5.32e+10,0.0144233172,0.240723
69.156808,6980558.043,525105.0617,-561.9855337,7578.892436,7000280.418,7599.699882,-28058754.29,5.32e+10,0.0144233172,0.226448
73.874772,6977816.361,560855.059,-600.2430222,7575.916007,7000319.962,7599.65756,-28058754.29,5.32e+10,0.0144233172,0.222159
78.482136,6974964.786,595753.0019,-637.5880463,7572.820312,7000361.091,7599.613543,-28058754.29,5.32e+10,0.0144233172,0.233136
83.252547,6971831.035,631870.4324,-676.2373534,7569.418327,7000406.29,7599.56517,-28058754.29,5.32e+10,0.0144233172,0.236067
88.00522629,6968525.63,667837.0017,-714.7244558,7565.830043,7000453.965,7599.514148,-28058754.29,5.32e+10,0.0144233172,0.2321588571
92.68205486,6965094.461,703212.4567,-752.578228,7562.105283,7000503.454,7599.461185,-28058754.29,5.32e+10,0.0144233172,0.2299097143
97.38934971,6961462.217,738800.3119,-790.6584467,7558.162301,7000555.843,7599.405118,-28058754.29,5.32e+10,0.0144233172,0.2336365715
102.1214091,6957630.244,774556.2205,-828.9176024,7554.002566,7000611.112,7599.345969,-28058754.29,5.32e+10,0.0144233172,0.2309245715
106.7929577,6953669.736,809835.1429,-866.6654657,7549.703372,7000668.236,7599.284837,-28058754.29,5.32e+10,0.0144233172,0.2359577142
111.461976,6949535.228,845074.4431,-904.3699862,7545.215373,7000727.869,7599.221019,-28058754.29,5.32e+10,0.0144233172,0.2300948571
116.258016,6945105.007,881250.1464,-943.0753883,7540.406462,7000791.768,7599.152637,-28058754.29,5.32e+10,0.0144233172,0.244416
120.9017966,6940638.604,916254.9557,-980.5269825,7535.558366,7000856.188,7599.083698,-28058754.29,5.32e+10,0.0144233172,0.2385017143
125.7210446,6935819.601,952558.1578,-1019.366605,7530.327637,7000925.694,7599.009317,-28058754.29,5.32e+10,0.0144233172,0.2277051429
130.4675177,6930890.476,988288.0364,-1057.591688,7524.977486,7000996.789,7598.933237,-28058754.29,5.32e+10,0.0144233172,0.2379565714
135.11328,6925890.302,1023234.759,-1094.977768,7519.550327,7001068.908,7598.856061,-28058754.29,5.32e+10,0.0144233172,0.225387
139.708284,6920773.973,1057774.435,-1131.927226,7513.99721,7001142.702,7598.777093,-28058754.29,5.32e+10,0.0144233172,0.2422290001
144.377616,6915401.026,1092846.242,-1169.444714,7508.165693,7001220.198,7598.694165,-28058754.29,5.32e+10,0.0144233172,0.243045
149.206512,6909660.284,1129087.432,-1208.211789,7501.935134,7001302.998,7598.605562,-28058754.29,5.32e+10,0.0144233172,0.245304
153.921561,6903874.332,1164444.696,-1246.031972,7495.655656,7001386.451,7598.516262,-28058754.29,5.32e+10,0.0144233172,0.242271
158.6104457,6897943.721,1199575.946,-1283.609025,7489.219335,7001471.99,7598.42473,-28058754.29,5.32e+10,0.0144233172,0.2366331429
163.2512914,6891900.453,1234317.111,-1320.767447,7482.660913,7001559.154,7598.331461,-28058754.29,5.32e+10,0.0144233172,0.2228468571
167.898168,6885676.629,1269072.493,-1357.93965,7475.906714,7001648.922,7598.235407,-28058754.29,5.32e+10,0.0144233172,0.232776
172.6790709,6879093.104,1304797.077,-1396.146924,7468.76235,7001743.879,7598.133802,-28058754.29,5.32e+10,0.0144233172,0.2391634285
177.433335,6872365.21,1340288.268,-1434.103006,7461.46152,7001840.917,7598.029971,-28058754.29,5.32e+10,0.0144233172,0.221079
181.9185497,6865852.714,1373738.742,-1469.875158,7454.394622,7001934.849,7597.929465,-28058754.29,5.32e+10,0.0144233172,0.2284011429
186.6213909,6858852.003,1408777.788,-1507.344555,7446.798159,7002035.822,7597.821427,-28058754.29,5.32e+10,0.0144233172,0.2318057142
191.3435589,6851645.317,1443924.433,-1544.927341,7438.978422,7002139.767,7597.710211,-28058754.29,5.32e+10,0.0144233172,0.2431234286
196.0664091,6844260.176,1479038.767,-1582.47386,7430.965291,7002246.285,7597.596243,-28058754.29,5.32e+10,0.0144233172,0.2310171429
200.83428,6836624.869,1514448.979,-1620.334965,7422.680977,7002356.411,7597.478417,-28058754.29,5.32e+10,0.0144233172,0.2370137143
205.4729246,6829023.362,1548861.101,-1657.127139,7414.433595,7002466.05,7597.361114,-28058754.29,5.32e+10,0.0144233172,0.2322754286
210.1245943,6821229.225,1583331.001,-1693.979305,7405.977484,7002578.468,7597.24084,-28058754.29,5.32e+10,0.0144233172,0.2270948572
214.7171897,6813365.997,1617324.14,-1730.31997,7397.44669,7002691.881,7597.119502,-28058754.29,5.32e+10,0.0144233172,0.2288194286
219.3580594,6805250.682,1651634.368,-1766.997778,7388.642696,7002808.931,7596.994276,-28058754.29,5.32e+10,0.0144233172,0.2290457142
224.0135383,6796938.905,1686011.121,-1803.744801,7379.625874,7002928.815,7596.866021,-28058754.29,5.32e+10,0.0144233172,0.2252262857
228.7128,6788375.576,1720668.162,-1840.789467,7370.336484,7003052.326,7596.733887,-28058754.29,5.32e+10,0.0144233172,0.2415428572
233.357256,6779741.181,1754877.686,-1877.353801,7360.970334,7003176.863,7596.600658,-28058754.29,5.32e+10,0.0144233172,0.222816
238.124364,6770702.279,1789944.934,-1914.83281,7351.165753,7003307.234,7596.46119,-28058754.29,5.32e+10,0.0144233172,0.236772
242.8582594,6761549.67,1824721.161,-1951.998646,7341.238205,7003439.245,7596.319971,-28058754.29,5.32e+10,0.0144233172,0.2288194286
247.625304,6752155.305,1859692.96,-1989.371301,7331.048822,7003574.743,7596.175024,-28058754.29,5.32e+10,0.0144233172,0.246576
252.211932,6742948.435,1893294.922,-2025.277961,7321.063182,7003707.536,7596.032973,-28058754.29,5.32e+10,0.0144233172,0.238404
257.015592,6733129.475,1928437.321,-2062.828452,7310.414096,7003849.158,7595.881481,-28058754.29,5.32e+10,0.0144233172,0.2400685714
261.7569017,6723261.214,1963072.963,-2099.835148,7299.711975,7003991.491,7595.729232,-28058754.29,5.32e+10,0.0144233172,0.2474811429
266.5882689,6713025.163,1998313.816,-2137.486083,7288.611445,7004139.129,7595.571312,-28058754.29,5.32e+10,0.0144233172,0.2326024615
271.256676,6702961.698,2032314.619,-2173.809819,7277.698534,7004284.278,7595.416057,-28058754.29,5.32e+10,0.0144233172,0.23442
275.9834116,6692599.87,2066687.896,-2210.529089,7266.462546,7004433.73,7595.256203,-28058754.29,5.32e+10,0.0144233172,0.2445687273
280.829352,6681796.689,2101872.436,-2248.112458,7254.748483,7004589.547,7595.089544,-28058754.29,5.32e+10,0.0144233172,0.24972
285.6939397,6670768.913,2137134.794,-2285.776327,7242.791425,7004748.604,7594.919424,-28058754.29,5.32e+10,0.0144233172,0.2368836923
290.4355886,6659843.65,2171449.559,-2322.4255,7230.946055,7004906.183,7594.750889,-28058754.29,5.32e+10,0.0144233172,0.2373805714
295.1497004,6648809.717,2205508.923,-2358.799344,7218.983403,7005065.329,7594.580681,-28058754.29,5.32e+10,0.0144233172,0.2478021818
300.043536,6637173.879,2240806.655,-2396.492975,7206.368774,7005233.156,7594.401193,-28058754.29,5.32e+10,0.0144233172,0.2421469091
304.7730425,6625753.637,2274860.02,-2432.855087,7193.988463,7005397.874,7594.225035,-28058754.29,5.32e+10,0.0144233172,0.2318769231
309.5592393,6614021.586,2309261.506,-2469.586195,7181.270737,7005567.089,7594.044072,-28058754.29,5.32e+10,0.0144233172,0.2401330909
314.2223716,6602422.267,2342719.476,-2505.307216,7168.697498,7005734.39,7593.86516,-28058754.29,5.32e+10,0.0144233172,0.2385316364
318.9844735,6590405.015,2376826.603,-2541.718537,7155.671868,7005907.718,7593.679807,-28058754.29,5.32e+10,0.0144233172,0.2376785454
323.8429632,6577966.003,2411559.689,-2578.795185,7142.189768,7006087.13,7593.487953,-28058754.29,5.32e+10,0.0144233172,0.2371248
328.6883112,6565381.409,2446133.119,-2615.698427,7128.55058,7006268.642,7593.293859,-28058754.29,5.32e+10,0.0144233172,0.2394888
333.6599448,6552283.148,2481538.458,-2653.486505,7114.355429,7006457.562,7593.091848,-28058754.29,5.32e+10,0.0144233172,0.2485656
338.6368632,6538982.992,2516910.242,-2691.235548,7099.94226,7006649.395,7592.886729,-28058754.29,5.32e+10,0.0144233172,0.2482344
343.4159345,6526034.92,2550807.919,-2727.408338,7085.911397,7006836.149,7592.687045,-28058754.29,5.32e+10,0.0144233172,0.2468072727
348.331848,6512535.919,2585605.774,-2764.538539,7071.284329,7007030.849,7592.478871,-28058754.29,5.32e+10,0.0144233172,0.244968
353.0143396,6499508.334,2618684.026,-2799.830838,7057.168843,7007218.75,7592.277972,-28058754.29,5.32e+10,0.0144233172,0.2312443636
357.75924,6486138.719,2652135.296,-2835.518059,7042.683552,7007411.584,7592.071804,-28058754.29,5.32e+10,0.0144233172,0.246664
362.564856,6472425.618,2685944.106,-2871.583538,7027.826939,7007609.373,7591.860346,-28058754.29,5.32e+10,0.0144233172,0.2479893333
367.448616,6458312.16,2720229.069,-2908.153634,7012.53746,7007812.936,7591.64272,-28058754.29,5.32e+10,0.0144233172,0.2461066666
372.279528,6444175.913,2754069.108,-2944.245818,6997.224184,7008016.827,7591.424749,-28058754.29,5.32e+10,0.0144233172,0.238056
377.0958415,6429909.015,2787732.792,-2980.146575,6981.770281,7008222.603,7591.20477,-28058754.29,5.32e+10,0.0144233172,0.2377243636
381.935544,6415398.864,2821484.527,-3016.137839,6966.053819,7008431.888,7590.981048,-28058754.29,5.32e+10,0.0144233172,0.23472
386.6483712,6401101.901,2854277.917,-3051.103861,6950.569185,7008638.097,7590.760619,-28058754.29,5.32e+10,0.0144233172,0.2351592
391.429464,6386429.658,2887471.32,-3086.493027,6934.679043,7008849.72,7590.53441,-28058754.29,5.32e+10,0.0144233172,0.241296
396.27732,6371379.98,2921050.216,-3122.289682,6918.381134,7009066.786,7590.30239,-28058754.29,5.32e+10,0.0144233172,0.248904
401.0293222,6356459.651,2953888.06,-3157.29288,6902.224299,7009281.987,7590.072371,-28058754.29,5.32e+10,0.0144233172,0.2364938182
405.9049387,6340978.531,2987499.87,-3193.11748,6885.461247,7009505.276,7589.833715,-28058754.29,5.32e+10,0.0144233172,0.2409893333
410.7051993,6325566.259,3020511.899,-3228.299213,6868.773803,7009727.572,7589.596127,-28058754.29,5.32e+10,0.0144233172,0.2395767272
415.4615869,6310128.487,3053142.771,-3263.07118,6852.059812,7009950.236,7589.358154,-28058754.29,5.32e+10,0.0144233172,0.2343163637
420.100908,6294911.544,3084893.529,-3296.901835,6835.585944,7010169.714,7589.123593,-28058754.29,5.32e+10,0.0144233172,0.227844
424.851592,6279166.891,3117326.822,-3331.456175,6818.541863,7010396.805,7588.880904,-28058754.29,5.32e+10,0.0144233172,0.23768
429.6291971,6263167.679,3149861.822,-3366.115205,6801.223344,7010627.566,7588.634301,-28058754.29,5.32e+10,0.0144233172,0.2307229091
434.2027964,6247696.708,3180929.661,-3399.207807,6784.477711,7010850.709,7588.395847,-28058754.29,5.32e+10,0.0144233172,0.2274545455
438.9165456,6231593.485,3212868.977,-3433.225089,6767.048865,7011082.971,7588.147656,-28058754.29,5.32e+10,0.0144233172,0.2423376
443.657736,6215234.983,3244910.944,-3467.347982,6749.344909,7011318.915,7587.89554,-28058754.29,5.32e+10,0.0144233172,0.24692
448.325328,6198972.595,3276373.126,-3500.849763,6731.746153,7011553.472,7587.644913,-28058754.29,5.32e+10,0.0144233172,0.2383645714
453.074364,6182266.18,3308299.573,-3534.842131,6713.668108,7011794.434,7587.387452,-28058754.29,5.32e+10,0.0144233172,0.248691
457.82376,6165397.277,3340142.165,-3568.741376,6695.415494,7012037.74,7587.127496,-28058754.29,5.32e+10,0.0144233172,0.226048
462.6722107,6148010.718,3372559.027,-3603.247983,6676.604088,7012288.512,7586.859573,-28058754.29,5.32e+10,0.0144233172,0.2495413334
467.5245076,6130443.109,3404909.854,-3637.680219,6657.598162,7012541.895,7586.588869,-28058754.29,5.32e+10,0.0144233172,0.2302712727
472.196224,6113371.653,3435969.19,-3670.733982,6639.130326,7012788.122,7586.32582,-28058754.29,5.32e+10,0.0144233172,0.234934
476.859976,6096175.5,3466889.135,-3703.635563,6620.528904,7013036.147,7586.060859,-28058754.29,5.32e+10,0.0144233172,0.238168
481.581108,6078611.719,3498100.747,-3736.843565,6601.53117,7013289.475,7585.790244,-28058754.29,5.32e+10,0.0144233172,0.233476
486.51868,6060075.261,3530646.863,-3771.467155,6581.482836,7013556.833,7585.504652,-28058754.29,5.32e+10,0.0144233172,0.2485466667
491.269092,6042080.324,3561865.461,-3804.674331,6562.021652,7013816.379,7585.227414,-28058754.29,5.32e+10,0.0144233172,0.234228
495.937272,6024243.448,3592453.2,-3837.206458,6542.73283,7014073.646,7584.952622,-28058754.29,5.32e+10,0.0144233172,0.228084
500.575896,6006369.307,3622757.713,-3869.43339,6523.405129,7014331.451,7584.677266,-28058754.29,5.32e+10,0.0144233172,0.22284
505.2356846,5988263.332,3653109.852,-3901.70696,6503.828189,7014592.599,7584.398349,-28058754.29,5.32e+10,0.0144233172,0.2279725714
509.9628453,5969742.156,3683807.229,-3934.343488,6483.803824,7014859.736,7584.113047,-28058754.29,5.32e+10,0.0144233172,0.2336533333
514.5670046,5951554.83,3713614.491,-3966.029635,6464.141888,7015122.057,7583.832898,-28058754.29,5.32e+10,0.0144233172,0.2191131428
519.1155936,5933443.984,3742972.748,-3997.234536,6444.564096,7015383.276,7583.553937,-28058754.29,5.32e+10,0.0144233172,0.2464416
523.841556,5914476.798,3773381.134,-4029.551442,6424.062163,7015656.845,7583.261798,-28058754.29,5.32e+10,0.0144233172,0.246522
528.491112,5895667.461,3803202.97,-4061.2408,6403.732432,7015928.139,7582.972101,-28058754.29,5.32e+10,0.0144233172,0.2213485715
532.9071291,5877666.676,3831439.059,-4091.241237,6384.278081,7016187.77,7582.694869,-28058754.29,5.32e+10,0.0144233172,0.2205188572
537.6259886,5858285.252,3861516.215,-4123.193585,6363.333213,7016467.314,7582.396384,-28058754.29,5.32e+10,0.0144233172,0.2466617143
542.2353634,5839208.179,3890799.753,-4154.298621,6342.718878,7016742.469,7582.102598,-28058754.29,5.32e+10,0.0144233172,0.2493908572
547.0944994,5818942.44,3921566.755,-4186.974856,6320.821864,7017034.768,7581.79052,-28058754.29,5.32e+10,0.0144233172,0.2210331429
551.4880491,5800482.041,3949293.836,-4216.418491,6300.877097,7017301.028,7581.506254,-28058754.29,5.32e+10,0.0144233172,0.2142925714
556.161768,5780702.7,3978692.491,-4247.632944,6279.509012,7017586.312,7581.20169,-28058754.29,5.32e+10,0.0144233172,0.241692
560.5788,5761875.806,4006384.418,-4277.031212,6259.171493,7017857.858,7580.911803,-28058754.29,5.32e+10,0.0144233172,0.2208
565.153056,5742242.139,4034967.024,-4307.370874,6237.964143,7018141.041,7580.609507,-28058754.29,5.32e+10,0.0144233172,0.2435588572
569.822046,5722058.988,4064041.186,-4338.227909,6216.165052,7018432.149,7580.298763,-28058754.29,5.32e+10,0.0144233172,0.225405
574.3514907,5702341.635,4092148.79,-4368.05484,6194.870797,7018716.538,7579.995203,-28058754.29,5.32e+10,0.0144233172,0.2245146667
579.054132,5681727.646,4121228.764,-4398.909137,6172.610043,7019013.86,7579.677852,-28058754.29,5.32e+10,0.0144233172,0.224418
583.8486069,5660562.015,4150768.464,-4430.24648,6149.755542,7019319.139,7579.352023,-28058754.29,5.32e+10,0.0144233172,0.2449131428
588.5010617,5639879.981,4179328.037,-4460.539453,6127.425144,7019617.442,7579.033653,-28058754.29,5.32e+10,0.0144233172,0.2148651429
592.9640194,5619908.139,4206626.413,-4489.490403,6105.863342,7019905.503,7578.726227,-28058754.29,5.32e+10,0.0144233172,0.2211668572
597.490008,5599522.52,4234211.733,-4518.741361,6083.856648,7020199.531,7578.412446,-28058754.29,5.32e+10,0.0144233172,0.224988
602.127888,5578495.853,4262375.354,-4548.601014,6061.15986,7020502.805,7578.088811,-28058754.29,5.32e+10,0.0144233172,0.222712
606.7783093,5557273.55,4290509.098,-4578.424365,6038.253886,7020808.901,7577.76218,-28058754.29,5.32e+10,0.0144233172,0.2327466667
611.5827189,5535203.158,4319462.186,-4609.111375,6014.434657,7021127.229,7577.422511,-28058754.29,5.32e+10,0.0144233172,0.2383611428
616.237616,5513679.253,4347404.757,-4638.722579,5991.2073,7021437.676,7577.091268,-28058754.29,5.32e+10,0.0144233172,0.2274266667
620.8638507,5492151.59,4375067.812,-4668.032894,5967.977941,7021748.176,7576.759981,-28058754.29,5.32e+10,0.0144233172,0.2264026666
625.4399177,5470724.246,4402324.835,-4696.908385,5944.858871,7022057.229,7576.430253,-28058754.29,5.32e+10,0.0144233172,0.2304788571
629.9915947,5449280.291,4429331.313,-4725.513875,5921.723916,7022366.522,7576.100284,-28058754.29,5.32e+10,0.0144233172,0.2251253333
634.5156034,5427837.93,4456068.973,-4753.830078,5898.592718,7022675.792,7575.770354,-28058754.29,5.32e+10,0.0144233172,0.2154102857
638.9567177,5406664.11,4482214.629,-4781.514891,5875.753211,7022981.189,7575.444571,-28058754.29,5.32e+10,0.0144233172,0.2324948572
643.4628651,5385054.825,4508639.177,-4809.490496,5852.44603,7023292.867,7575.112103,-28058754.29,5.32e+10,0.0144233172,0.2168811429
647.943264,5363444.291,4534808.307,-4837.191158,5829.139571,7023604.562,7574.77963,-28058754.29,5.32e+10,0.0144233172,0.2202685714
652.462104,5341522.893,4561095.895,-4865.012606,5805.499966,7023920.741,7574.442389,-28058754.29,5.32e+10,0.0144233172,0.228208
657.0399,5319187.576,4587617.216,-4893.076687,5781.416187,7024242.891,7574.098797,-28058754.29,5.32e+10,0.0144233172,0.2462839999
661.6563566,5296533.811,4614250.548,-4921.254439,5756.991288,7024569.633,7573.750322,-28058754.29,5.32e+10,0.0144233172,0.2153931429
666.1725737,5274246.338,4640196.163,-4948.699853,5732.963535,7024891.092,7573.407498,-28058754.29,5.32e+10,0.0144233172,0.2320285715
670.627824,5252138.547,4665684.909,-4975.657369,5709.131667,7025209.96,7573.067453,-28058754.29,5.32e+10,0.0144233172,0.215568
675.274968,5228950.856,4692158.045,-5003.651087,5684.138008,7025544.404,7572.710815,-28058754.29,5.32e+10,0.0144233172,0.248583
679.7891657,5206302.24,4717762.32,-5030.72121,5659.727707,7025871.072,7572.362485,-28058754.29,5.32e+10,0.0144233172,0.2240502857
684.3276027,5183409.103,4743392.701,-5057.814114,5635.056171,7026201.267,7572.010411,-28058754.29,5.32e+10,0.0144233172,0.2265653333
688.9128206,5160155.408,4769173.264,-5085.060837,5609.998443,7026536.662,7571.652808,-28058754.29,5.32e+10,0.0144233172,0.2274342857
693.406248,5137246.297,4794325.975,-5111.639168,5585.31437,7026867.088,7571.300522,-28058754.29,5.32e+10,0.0144233172,0.24912
697.920788,5114109.553,4819484.881,-5138.219204,5560.387384,7027200.796,7570.944752,-28058754.29,5.32e+10,0.0144233172,0.2492839999
702.8793737,5088559.163,4846988.359,-5167.270629,5532.862743,7027569.318,7570.551888,-28058754.29,5.32e+10,0.0144233172,0.2174057143
707.238,5065981.538,4871051.082,-5192.682765,5508.542972,7027894.962,7570.204751,-28058754.29,5.32e+10,0.0144233172,0.217464
711.6190183,5043176.563,4895130.349,-5218.107745,5483.980596,7028223.885,7569.854134,-28058754.29,5.32e+10,0.0144233172,0.2173817143
716.323968,5018561.652,4920869.892,-5245.280603,5457.471385,7028578.914,7569.475709,-28058754.29,5.32e+10,0.0144233172,0.244016
721.0383703,4993769.379,4946535.73,-5272.370235,5430.77387,7028936.501,7569.094577,-28058754.29,5.32e+10,0.0144233172,0.2225622857
725.509944,4970136.379,4970762.987,-5297.93645,5405.327246,7029277.367,7568.731285,-28058754.29,5.32e+10,0.0144233172,0.221016
730.0142571,4946215.051,4995052.316,-5323.56319,5379.57268,7029622.392,7568.363579,-28058754.29,5.32e+10,0.0144233172,0.2258228571
734.4805714,4922381.834,5019021.926,-5348.847653,5353.915491,7029966.146,7567.997245,-28058754.29,5.32e+10,0.0144233172,0.2320662857
739.1299371,4897452.156,5043851.904,-5375.034415,5327.080613,7030325.714,7567.614077,-28058754.29,5.32e+10,0.0144233172,0.2156502857
