t,x,y,vx,vy,r,v,energy,h,e,dt_eff
0,3800000,0,0,5200,3800000,5200,2297142.105,1.976e+10,1.409368474,0
20.194758,3799397.846,105007.1952,-59.62640172,5199.176184,3800848.656,5199.518084,2297142.105,1.976e+10,1.409368474,1.0097379
78.46997007,3790926.104,407719.4445,-230.790981,5187.624737,3812788.464,5192.756001,2297142.105,1.976e+10,1.409368474,2.913760603
137.2569401,3772355.354,712011.537,-400.2887597,5162.554415,3838961.493,5178.049746,2297142.105,1.976e+10,1.409368474,2.939348503
195.9977782,3743993.631,1014217.752,-564.3116047,5124.919282,3878933.611,5155.894223,2297142.105,1.976e+10,1.409368474,2.937041902
254.8345708,3706131.039,1314360.753,-721.3873232,5075.869314,3932295.954,5126.875165,2297142.105,1.976e+10,1.409368474,2.941839633
313.2807789,3659615.747,1609360.841,-868.813806,5017.402468,3997853.14,5092.068829,2297142.105,1.976e+10,1.409368474,2.922310406
371.9145907,3604571.959,1901628.684,-1007.053143,4950.645752,4075430.12,5052.034184,2297142.105,1.976e+10,1.409368474,2.931690586
434.5145269,3537204.799,2209120.212,-1143.25822,4872.323243,4170375.271,5004.655147,2297142.105,1.976e+10,1.409368474,3.129996811
499.606823,3458523.134,2523462.41,-1272.110022,4785.244318,4281266.729,4951.44697,2297142.105,1.976e+10,1.409368474,3.254614805
566.0012725,3370067.036,2838115.972,-1390.247985,4692.581725,4405933.965,4894.191732,2297142.105,1.976e+10,1.409368474,3.319722478
628.9653443,3279320.925,3130759.767,-1490.337947,4602.815724,4533828.674,4838.080176,2297142.105,1.976e+10,1.409368474,3.148203586
687.8045973,3189125.341,3399104.446,-1573.948144,4518.47586,4660947.487,4784.760898,2297142.105,1.976e+10,1.409368474,2.941962652
749.4437571,3089655.551,3674907.587,-1651.971069,4430.642433,4801137.073,4728.593954,2297142.105,1.976e+10,1.409368474,3.081957989
809.1422961,2988995.831,3936901.011,-1718.951721,4346.830161,4943003.708,4674.369205,2297142.105,1.976e+10,1.409368474,2.98492695
868.0584358,2885961.864,4190605.159,-1777.506833,4265.881282,5088216.532,4621.393042,2297142.105,1.976e+10,1.409368474,2.945806987
927.3159526,2779056.958,4441031.165,-1829.553362,4186.634774,5238884.937,4568.936007,2297142.105,1.976e+10,1.409368474,2.962875839
993.9010812,2655492.681,4716914.227,-1880.691068,4100.535325,5413032.533,4511.251361,2297142.105,1.976e+10,1.409368474,3.329256431
1060.060565,2529577.191,4985464.953,-1924.667058,4018.315738,5590493.856,4455.469072,2297142.105,1.976e+10,1.409368474,3.307974188
1127.161757,2399106.437,5252399.215,-1963.147118,3938.452864,5774375.223,4400.608772,2297142.105,1.976e+10,1.409368474,3.355059614
1195.344899,2264078.9,5518273.248,-1996.715834,3860.985777,5964678.776,4346.732714,2297142.105,1.976e+10,1.409368474,3.409157109
1262.022292,2129981.59,5773287.526,-2024.832081,3788.794346,6153671.297,4295.917544,2297142.105,1.976e+10,1.409368474,3.333869634
1326.584377,1998481.412,6015732.497,-2048.177753,3722.181498,6339003.504,4248.489992,2297142.105,1.976e+10,1.409368474,3.228104264
1394.063852,1859549.25,6264648.417,-2069.016006,3655.90863,6534810.113,4200.77316,2297142.105,1.976e+10,1.409368474,3.373973747
1459.691895,1723183.53,6502550.494,-2086.231257,3594.611834,6726999.659,4156.151477,2297142.105,1.976e+10,1.409368474,3.281402137
1526.855212,1582550.543,6741956.343,-2101.13291,3534.960494,6925203.358,4112.262784,2297142.105,1.976e+10,1.409368474,3.358165837
1592.553375,1444095.666,6972359.065,-2113.388294,3479.477217,7120337.297,4071.016063,2297142.105,1.976e+10,1.409368474,3.284908172
1660.943804,1299185.048,7208428.42,-2124.019948,3424.573157,7324569.753,4029.784368,2297142.105,1.976e+10,1.409368474,3.419521439
1722.809933,1167525.757,7418819.262,-2132.002334,3377.278825,7510126.206,3993.926165,2297142.105,1.976e+10,1.409368474,3.093306469
1783.231823,1038504.266,7621537.568,-2138.481088,3333.145722,7691965.029,3960.171937,2297142.105,1.976e+10,1.409368474,3.021094463
1842.842403,910866.051,7818977.762,-2143.744636,3291.492048,7871854.305,3928.047985,2297142.105,1.976e+10,1.409368474,2.98052903
1903.579836,780523.7285,8017652.005,-2148.087033,3250.875791,8055554.665,3896.469083,2297142.105,1.976e+10,1.409368474,3.036871617
1963.854717,650941.1143,8212426.955,-2151.493982,3212.291838,8238184.316,3866.231396,2297142.105,1.976e+10,1.409368474,3.013744092
2023.934,521598.972,8404304.531,-2154.097255,3175.448507,8420475.054,3837.135416,2297142.105,1.976e+10,1.409368474,3.003964102
2084.439542,391202.9084,8595353.293,-2156.010013,3139.885232,8604251.155,3808.839514,2297142.105,1.976e+10,1.409368474,3.0252771
2144.601246,261452.3357,8783227.028,-2157.286342,3105.974535,8787117.522,3781.661298,2297142.105,1.976e+10,1.409368474,3.00808523
2205.606244,129822.1115,8971693.784,-2158.015985,3072.984998,8972633.01,3755.032595,2297142.105,1.976e+10,1.409368474,3.050249906
2264.149022,3477.119464,9150698.998,-2158.241747,3042.578195,9150699.659,3730.320296,2297142.105,1.976e+10,1.409368474,2.927138892
2323.222626,-124014.3211,9329557.874,-2158.051254,3013.07193,9330382.076,3706.182358,2297142.105,1.976e+10,1.409368474,2.953680187
2382.106781,-251074.5227,9506141.628,-2157.489519,2984.774868,9509456.718,3682.885015,2297142.105,1.976e+10,1.409368474,2.944207744
2440.845773,-377778.6852,9680661.146,-2156.600409,2957.598797,9688029.57,3660.371015,2297142.105,1.976e+10,1.409368474,2.936949638
2500.392999,-506163.9584,9855983.005,-2155.401404,2931.065282,9868971.727,3638.254925,2297142.105,1.976e+10,1.409368474,2.977361297
2560.17027,-634965.2609,10030422.42,-2153.9304,2905.405816,10050500.22,3616.738741,2297142.105,1.976e+10,1.409368474,2.98886355
2619.67444,-763083.6196,10202569.23,-2152.230472,2880.78572,10231066.2,3595.973077,2297142.105,1.976e+10,1.409368474,2.975208469
2678.988545,-890685.8107,10372734.24,-2150.32894,2857.113679,10410904.7,3575.893333,2297142.105,1.976e+10,1.409368474,2.96570527
2738.617579,-1018846.224,10542412.39,-2148.233191,2834.14724,10591529.95,3556.303758,2297142.105,1.976e+10,1.409368474,2.981451671
2798.202325,-1146781.675,10710620.37,-2145.976331,2811.989303,10771838.14,3537.300984,2297142.105,1.976e+10,1.409368474,2.979237333
2857.097552,-1273100.246,10875606.43,-2143.604879,2790.827364,10949867.55,3519.056585,2297142.105,1.976e+10,1.409368474,2.944761328
2916.373521,-1400090.662,11040421.7,-2141.093997,2770.235343,11128843.84,3501.21227,2297142.105,1.976e+10,1.409368474,2.96379848
2975.494487,-1526597.466,11203610.23,-2138.481011,2750.369908,11307138.54,3483.910973,2297142.105,1.976e+10,1.409368474,2.956048298
3034.521344,-1652745.926,11365386.34,-2135.777657,2731.174918,11484928.2,3467.111569,2297142.105,1.976e+10,1.409368474,2.951342831
3093.850212,-1779376.519,11526866.76,-2132.977731,2712.495118,11663397.37,3450.684536,2297142.105,1.976e+10,1.409368474,2.966443383
3153.329777,-1906159.817,11687662.51,-2130.098703,2694.356848,11842081.75,3434.658543,2297142.105,1.976e+10,1.409368474,2.973978281
3212.656185,-2032444.191,11846986.3,-2127.165417,2676.826047,12020062.97,3419.097892,2297142.105,1.976e+10,1.409368474,2.966320364
3271.688577,-2157928.401,12004503.99,-2124.194556,2659.913103,12196916.46,3404.018247,2297142.105,1.976e+10,1.409368474,2.951619623
3330.53029,-2282831.435,12160534.26,-2121.189594,2643.558628,12372950.86,3389.372732,2297142.105,1.976e+10,1.409368474,2.94208567
3389.957573,-2408796.861,12317155.11,-2118.117783,2627.529696,12550482.56,3374.957073,2297142.105,1.976e+10,1.409368474,2.971364133
3449.18618,-2534158.598,12472318.52,-2115.025913,2612.02155,12727163.44,3360.950935,2297142.105,1.976e+10,1.409368474,2.961430369
3509.467828,-2661560.357,12629311.29,-2111.854133,2596.696042,12906719.46,3347.052168,2297142.105,1.976e+10,1.409368474,3.014082394
3569.08702,-2787373.392,12783683.26,-2108.697964,2581.974444,13084036.39,3333.646521,2297142.105,1.976e+10,1.409368474,2.980959595
3629.102948,-2913833.146,12938208.66,-2105.506454,2567.573869,13262264.78,3320.480838,2297142.105,1.976e+10,1.409368474,3.000796369
3689.911731,-3041767.847,13093906.52,-2102.262715,2553.393901,13442571.91,3307.465636,2297142.105,1.976e+10,1.409368474,3.040439161
3750.36745,-3168764.012,13247857.59,-2099.031912,2539.689235,13621556.3,3294.837838,2297142.105,1.976e+10,1.409368474,3.02278597
3810.054302,-3293953.366,13399049.07,-2095.840068,2526.527545,13797994.23,3282.664623,2297142.105,1.976e+10,1.409368474,2.984342611
3870.325494,-3420175.035,13550934.36,-2092.618109,2513.593764,13975887.07,3270.658062,2297142.105,1.976e+10,1.409368474,3.013559564
3930.3691,-3545727.104,13701481.37,-2089.412384,2501.051153,14152836.2,3258.972381,2297142.105,1.976e+10,1.409368474,3.00218033
3990.641522,-3671564.234,13851854.67,-2086.201179,2488.790873,14330187.08,3247.509102,2297142.105,1.976e+10,1.409368474,3.013621074
4053.270367,-3802116.363,14007334.63,-2082.874127,2476.387881,14514183.14,3235.871068,2297142.105,1.976e+10,1.409368474,3.131442281
4119.29084,-3939513.28,14170405.12,-2079.380194,2463.669763,14707826.02,3223.893716,2297142.105,1.976e+10,1.409368474,3.301023628
4185.760946,-4077613.433,14333749.8,-2075.878707,2451.219611,14902460.02,3212.125463,2297142.105,1.976e+10,1.409368474,3.323505305
4253.969922,-4219084.994,14500519.36,-2072.304894,2438.798282,15101845.58,3200.34133,2297142.105,1.976e+10,1.409368474,3.410448806
4321.507216,-4358923.959,14664823.47,-2068.787561,2426.838478,15298930.21,3188.953899,2297142.105,1.976e+10,1.409368474,3.376864688
4387.406515,-4495143.13,14824374.54,-2065.377675,2415.480864,15490913.21,3178.102066,2297142.105,1.976e+10,1.409368474,3.294964955
4454.791266,-4634201.285,14986758.43,-2061.915063,2404.173293,15686897.39,3167.261112,2297142.105,1.976e+10,1.409368474,3.369237525
4520.490044,-4769556.364,15144355.42,-2058.563866,2393.434935,15877662.58,3156.931418,2297142.105,1.976e+10,1.409368474,3.284938926
4585.662917,-4903611.24,15300002.65,-2055.264742,2383.051068,16066595.29,3146.910478,2297142.105,1.976e+10,1.409368474,3.258643669
4652.216061,-5040284.203,15458256.71,-2051.922649,2372.712841,16259217.86,3136.901781,2297142.105,1.976e+10,1.409368474,3.327657188
4717.502727,-5174141.11,15612839.03,-2048.671361,2362.822339,16447871.56,3127.296556,2297142.105,1.976e+10,1.409368474,3.264333286
4786.423982,-5315220.686,15775335.35,-2045.269046,2352.640807,16646704.67,3117.377783,2297142.105,1.976e+10,1.409368474,3.446062734
4852.566243,-5450392.24,15930627.9,-2042.033462,2343.111226,16837211.2,3108.065456,2297142.105,1.976e+10,1.409368474,3.307113056
4920.326816,-5588650.15,16089074.37,-2038.749224,2333.584594,17032067.54,3098.728039,2297142.105,1.976e+10,1.409368474,3.388028639
4991.71029,-5734060.668,16255302.94,-2035.323241,2323.797504,17237004.53,3089.105944,2297142.105,1.976e+10,1.409368474,3.569173748
5061.802684,-5876604.447,16417853.69,-2031.993375,2314.426649,17437901.24,3079.864898,2297142.105,1.976e+10,1.409368474,3.504619659
5129.244023,-6013537.67,16573643.79,-2028.821646,2305.625745,17630890.61,3071.160586,2297142.105,1.976e+10,1.409368474,3.372066956
5188.44003,-6133554.065,16709903.2,-2026.063844,2298.069042,17800037.93,3063.667087,2297142.105,1.976e+10,1.409368474,2.95980037
5247.648339,-6253432.826,16845748,-2023.330005,2290.663027,17968991.28,3056.30519,2297142.105,1.976e+10,1.409368474,2.960415464
5307.539403,-6374530.024,16982717.66,-2020.589644,2283.321809,18139661.85,3048.990159,2297142.105,1.976e+10,1.409368474,2.994553167
5368.104609,-6496824.178,17120786.47,-2017.844018,2276.046906,18312019.38,3041.723853,2297142.105,1.976e+10,1.409368474,3.028260305
5429.049328,-6619717.583,17259280.17,-2015.107135,2268.873017,18485221.47,3034.541404,2297142.105,1.976e+10,1.409368474,3.047235947
5490.139209,-6742737.105,17397669.36,-2012.389804,2261.825158,18658601.31,3027.468541,2297142.105,1.976e+10,1.409368474,3.054494053
5554.403589,-6871970.985,17542789.92,-2009.559358,2254.560983,18840739.46,3020.161261,2297142.105,1.976e+10,1.409368474,3.213218995
5617.143151,-6997963.902,17684021.4,-2006.82375,2247.612929,19018309.91,3013.155396,2297142.105,1.976e+10,1.409368474,3.136978125
5687.253382,-7138556.546,17841334.6,-2003.798954,2240.011341,19216456.75,3005.471853,2297142.105,1.976e+10,1.409368474,3.505511545
5747.333894,-7258868.631,17975723.32,-2001.23376,2233.629673,19386020.81,2999.006182,2297142.105,1.976e+10,1.409368474,3.004025611
5807.288928,-7378776.544,18109452.72,-1998.698503,2227.379559,19555015.24,2992.660256,2297142.105,1.976e+10,1.409368474,2.997751655
5867.598255,-7499240.423,18243597.81,-1996.172877,2221.208308,19724793.23,2986.381172,2297142.105,1.976e+10,1.409368474,3.015466355
5928.020144,-7619777.134,18377623.48,-1993.667116,2215.138751,19894673.87,2980.192654,2297142.105,1.976e+10,1.409368474,3.021094463
5988.513999,-7740306.479,18511444.75,-1991.182829,2209.172334,20064544.13,2974.096747,2297142.105,1.976e+10,1.409368474,3.024692761
6049.481477,-7861628.174,18645951.88,-1988.703655,2203.267856,20235531.1,2968.051798,2297142.105,1.976e+10,1.409368474,3.04837387
6109.301804,-7980520.915,18777581.39,-1986.294893,2197.577603,20403094.78,2962.214497,2297142.105,1.976e+10,1.409368474,2.991016378
6172.52237,-8106015.797,18916326.23,-1983.774572,2191.67189,20579963.32,2956.143979,2297142.105,1.976e+10,1.409368474,3.161028291
6233.122636,-8226160.479,19048973.18,-1981.382942,2186.112289,20749291.44,2950.417818,2297142.105,1.976e+10,1.409368474,3.030013322
6293.367994,-8345458.567,19180512.21,-1979.028604,2180.680925,20917426.41,2944.812984,2297142.105,1.976e+10,1.409368474,3.012267867
6354.008241,-8465396.087,19312585.86,-1976.68205,2175.307762,21086462.57,2939.257693,2297142.105,1.976e+10,1.409368474,3.032012377
6419.599993,-8594967.589,19455080.31,-1974.169844,2169.598972,21269076.56,2933.343872,2297142.105,1.976e+10,1.409368474,3.279587611
6479.503359,-8713158.875,19584892.73,-1971.89882,2164.476412,21435651.63,2928.027167,2297142.105,1.976e+10,1.409368474,2.995168261
6539.363052,-8831128.761,19714306.53,-1969.651445,2159.442227,21601914.67,2922.792765,2297142.105,1.976e+10,1.409368474,2.992984678
6600.215507,-8950917.939,19845560.33,-1967.389093,2154.409086,21770741.76,2917.55006,2297142.105,1.976e+10,1.409368474,3.042622744
6661.075343,-9070584.629,19976526.25,-1965.148703,2149.458435,21939396.22,2912.384073,2297142.105,1.976e+10,1.409368474,3.0429918
6731.593381,-9209072.327,20127902.52,-1962.580256,2143.823327,22134576.41,2906.492683,2297142.105,1.976e+10,1.409368474,3.525901903
6791.722486,-9327015.264,20256666.37,-1960.413227,2139.101966,22300801.47,2901.547388,2297142.105,1.976e+10,1.409368474,3.006455231
6852.554027,-9446204.082,20386647.9,-1958.242191,2134.4017,22468782.43,2896.615801,2297142.105,1.976e+10,1.409368474,3.041577084
6923.472492,-9584990.641,20537824.84,-1955.737887,2129.016388,22664383.83,2890.955113,2297142.105,1.976e+10,1.409368474,3.545923205
6985.866371,-9706948.599,20670516.78,-1953.558102,2124.360226,22836267.54,2886.05191,2297142.105,1.976e+10,1.409368474,3.119693991
7058.48803,-9848727.92,20824597.36,-1951.048325,2119.034657,23036086.84,2880.433552,2297142.105,1.976e+10,1.409368474,3.631082934
7118.963432,-9966655.724,20952614.67,-1948.98046,2114.674887,23202290.57,2875.825918,2297142.105,1.976e+10,1.409368474,3.023770121
7178.78622,-10083188.47,21078993.05,-1946.954455,2110.427617,23366528.15,2871.330071,2297142.105,1.976e+10,1.409368474,2.991139397
7238.549344,-10199484.55,21204993.6,-1944.949646,2106.248083,23530432.18,2866.899041,2297142.105,1.976e+10,1.409368474,2.988156192
7307.046184,-10332629.42,21349103.02,-1942.675131,2101.533949,23718082.35,2861.89301,2297142.105,1.976e+10,1.409368474,3.424842
7367.373349,-10449765.59,21475759.05,-1940.692225,2097.447873,23883170.39,2857.546831,2297142.105,1.976e+10,1.409368474,3.01635824
7427.785397,-10566947.28,21602348.1,-1938.725362,2093.416343,24048322.56,2853.252182,2297142.105,1.976e+10,1.409368474,3.020602388
7489.006908,-10685578.44,21730386.68,-1936.751132,2089.39096,24215517.59,2848.957622,2297142.105,1.976e+10,1.409368474,3.061075556
7553.568993,-10810552.48,21865146.8,-1934.689621,2085.210041,24391652.05,2844.490261,2297142.105,1.976e+10,1.409368474,3.228104264
7613.695637,-10926821.62,21990407.89,-1932.788367,2081.374196,24555518.12,2840.385434,2297142.105,1.976e+10,1.409368474,3.006332213
7680.289992,-11055464.87,22128875.95,-1930.703296,2077.189336,24736823.86,2835.900343,2297142.105,1.976e+10,1.409368474,3.329717751
7748.893859,-11187845.54,22271233.24,-1928.577746,2072.94646,24923397,2831.345819,2297142.105,1.976e+10,1.409368474,3.430193316
7809.699567,-11305057.28,22397167.34,-1926.712586,2069.24243,25088591.53,2827.363723,2297142.105,1.976e+10,1.409368474,3.040285387
7871.258149,-11423605.31,22524432.91,-1924.84207,2065.545458,25255669.39,2823.383614,2297142.105,1.976e+10,1.409368474,3.077929125
7939.514487,-11554917.78,22665281.3,-1922.788627,2061.507104,25440737.04,2819.029557,2297142.105,1.976e+10,1.409368474,3.412816917
8006.12299,-11682925.69,22802465.63,-1920.805347,2057.626535,25621147.35,2814.839274,2297142.105,1.976e+10,1.409368474,3.330425109
8071.698749,-11808820.48,22937272.35,-1918.872407,2053.862962,25798579.5,2810.769357,2297142.105,1.976e+10,1.409368474,3.278787989
8142.459749,-11944528.64,23082463.88,-1916.80812,2049.863575,25989842.31,2806.437963,2297142.105,1.976e+10,1.409368474,3.538050005
8203.851642,-12062150.61,23208203.69,-1915.034982,2046.444514,26155614.99,2802.729764,2297142.105,1.976e+10,1.409368474,3.069594605
8264.977198,-12179154.64,23333190.88,-1913.285771,2043.086145,26320516.79,2799.082607,2297142.105,1.976e+10,1.409368474,3.056277825
8326.867931,-12297514.91,23459534.93,-1911.530956,2039.731394,26487330.03,2795.434627,2297142.105,1.976e+10,1.409368474,3.094536656
8388.964721,-12416160.61,23586092.37,-1909.786562,2036.410695,26654545.53,2791.818983,2297142.105,1.976e+10,1.409368474,3.104839477
8456.323022,-12544737.36,23723141.62,-1907.912538,2032.858766,26835757.56,2787.94638,2297142.105,1.976e+10,1.409368474,3.367915074
8518.232823,-12662802.96,23848895.62,-1906.206558,2029.639195,27002155.49,2784.431487,2297142.105,1.976e+10,1.409368474,3.095490051
8588.033662,-12795791.18,23990440.91,-1904.301777,2026.059887,27189584.9,2780.518643,2297142.105,1.976e+10,1.409368474,3.490041937
8657.349807,-12927725.04,24130757.88,-1902.429506,2022.557387,27375528.32,2776.684427,2297142.105,1.976e+10,1.409368474,3.465807244
8718.245933,-13043525.95,24253831.18,-1900.800301,2019.522152,27538734.47,2773.357442,2297142.105,1.976e+10,1.409368474,3.044806327
8781.40376,-13163523.41,24381281.46,-1899.125829,2016.414645,27707855.1,2769.9471,2297142.105,1.976e+10,1.409368474,3.157891312
8849.387611,-13292572.51,24518252.66,-1897.340523,2013.114791,27889732.84,2766.321063,2297142.105,1.976e+10,1.409368474,3.399192591
8912.114872,-13411536.23,24644435.42,-1895.708788,2010.110723,28057396.55,2763.015911,2297142.105,1.976e+10,1.409368474,3.136363031
8973.471704,-13527802.31,24767680.25,-1894.12693,2007.209266,28221258.3,2759.819897,2297142.105,1.976e+10,1.409368474,3.067841587
9037.38671,-13648813.18,24895875.47,-1892.493889,2004.224969,28391807.21,2756.528768,2297142.105,1.976e+10,1.409368474,3.195750333
9098.631595,-13764671.19,25018537.34,-1890.94303,2001.401154,28555093.83,2753.410997,2297142.105,1.976e+10,1.409368474,3.062244234
9159.150669,-13879063.27,25139576.71,-1889.423798,1998.644573,28716314.43,2750.364052,2297142.105,1.976e+10,1.409368474,3.025953703
9220.163048,-13994295.13,25261434.84,-1887.905347,1995.898875,28878718.57,2747.325776,2297142.105,1.976e+10,1.409368474,3.050618962
9280.714722,-14108565.66,25382208.18,-1886.411267,1993.20641,29039767.85,2744.343138,2297142.105,1.976e+10,1.409368474,3.027583702
9341.716645,-14223594.79,25503715.69,-1884.918917,1990.526064,29201886.28,2741.370704,2297142.105,1.976e+10,1.409368474,3.050096133
9403.828197,-14340623.18,25627266.44,-1883.412496,1987.829503,29366822.4,2738.377031,2297142.105,1.976e+10,1.409368474,3.105577589
9464.513961,-14454875.16,25747820.24,-1881.953238,1985.225977,29527845.55,2735.483534,2297142.105,1.976e+10,1.409368474,3.034288223
