t,x,y,vx,vy,r,v,energy,h,e,dt_eff
0.25,6971000.0,2173.9187500166786,-2.0504814492550762,8695.675000066714,6971000.338970207,8695.675241823341,-19368237.995190494,60617554883.045135,0.3225001458772945,0.25
5.25,6970892.350267257,45652.08113583953,-43.059653055344164,8695.540717833359,6971041.835445157,8695.647331235274,-19368140.347261354,60617644034.156975,0.3225030633799861,0.25
10.25,6970579.659610732,89128.9646679818,-84.06633179810387,8695.150675728879,6971149.457824131,8695.557050688034,-19368042.704441473,60617733182.60284,0.322505980647218,0.25
15.25,6970061.946130263,132603.2906430002,-125.06814495655227,8694.504919273466,6971323.200482283,8695.404408775556,-19367945.071476564,60617822325.84621,0.32250889745487693,0.25
20.25,6969339.239787172,176073.78065474282,-166.06272078217506,8693.603523327358,6971563.05396941,8695.189419905895,-19367847.453110173,60617911461.351295,0.3225118135789715,0.25
25.25,6968411.582398287,219539.1567409977,-207.04768897436773,8692.446592067425,6971869.005011866,8694.912104297215,-19367749.854082257,60618000586.58376,0.3225147287957045,0.25
30.25,6967279.027627573,262998.14153000194,-248.02068115522465,8691.034258954462,6972241.036515251,8694.57248797207,-19367652.27912829,60618089699.010994,0.322517642881526,0.25
35.25,6965941.640975389,306449.45838676573,-288.979331343461,8689.366686691312,6972679.127567856,8694.170602750124,-19367554.732978053,60618178796.10252,0.3225205556131948,0.25
40.25,6964399.499765375,349891.8315591655,-329.92127642725325,8687.444067171815,6973183.253444874,8693.706486239234,-19367457.220354535,60618267875.33053,0.3225234667678415,0.25
45.25,6962652.693128997,393323.98632375896,-370.8441566357848,8685.266621420573,6973753.385613381,8693.180181824902,-19367359.745972797,60618356934.1702,0.32252637612302565,0.25
50.25,6960701.321987719,436744.6491312788,-411.74561600928604,8682.834599523647,6974389.491738068,8692.591738658146,-19367262.314538844,60618445970.10028,0.3225292834568009,0.25
55.25,6958545.499032834,480152.54775175726,-452.6233028673567,8680.148280550138,6975091.53568773,8691.94121164174,-19367164.93074859,60618534980.60333,0.3225321885477667,0.25
60.25,6956185.348702953,523546.41141923703,-493.47487027536124,8677.207972464792,6975859.477542505,8691.2286614149,-19367067.599286728,60618623963.16628,0.3225350911751348,0.25
65.25,6953621.007159186,566924.9709760251,-534.2979765086909,8674.014012031603,6976693.2736018775,8690.454154336347,-19366970.324825563,60618712915.28082,0.32253799111878523,0.25
70.25,6950852.622257983,610286.9590164421,-575.0902855146843,8670.566764708523,6977592.876393422,8689.617762465814,-19366873.112023987,60618801834.44381,0.322540888159325,0.25
75.25,6947880.353521692,653631.1100300244,-615.849467372003,8666.866624533322,6978558.234682274,8688.719563543988,-19366775.965526484,60618890718.15769,0.3225437820781454,0.25
80.25,6944704.3721068,696956.160544136,-656.5731987472604,8662.914014000704,6979589.293481367,8687.75964097091,-19366678.88996177,60618979563.93103,0.3225466726574872,0.25
85.25,6941324.860769935,740260.8492659428,-697.2591633487041,8658.709383930647,6980685.994062381,8686.738083782795,-19366581.889942072,60619068369.2787,0.3225495596804851,0.25
90.25,6937742.01383157,783543.9172237106,-737.9050523767512,8654.253213328218,6981848.273967431,8685.654986627373,-19366484.970061883,60619157131.722496,0.322552442931235,0.25
95.25,6933956.037137509,826804.1079073803,-778.508564971185,8649.546009234788,6983076.067021484,8684.510449737678,-19366388.13489692,60619245848.791466,0.3225553221948464,0.25
100.25,6929967.148018127,870040.1674083789,-819.0674086548196,8644.588306570837,6984369.303345471,8683.304578904379,-19366291.38900307,60619334518.02234,0.32255819725749985,0.25
105.25,6925775.575245418,913250.8445586275,-859.5792997734395,8639.380667970383,6985727.9093701495,8682.037485446568,-19366194.736915447,60619423136.95993,0.3225610679065,0.25
110.25,6921381.558987831,956434.8910686965,-900.0419639318321,8633.923683607194,6987151.807850635,8680.709286181142,-19366098.18314731,60619511703.15752,0.3225639339303316,0.25
115.25,6916785.350762958,999591.0616650783,-940.4531364257246,8628.217971012828,6988640.917881657,8679.320103390686,-19366001.732189074,60619600214.17726,0.32256679511871283,0.25
120.25,6911987.213388054,1042718.1142265274,-980.8105626694488,8622.264174886648,6990195.154913493,8677.870064789959,-19365905.38850739,60619688667.59055,0.3225696512626466,0.25
125.25,6906987.420928445,1085814.8099194306,-1021.1119986191544,8616.062966897935,6991814.430768606,8676.359303490955,-19365809.15654391,60619777060.97856,0.3225725021544794,0.25
130.25,6901786.258643817,1128879.9133321764,-1061.3552111913957,8609.61504548015,6993498.653658945,8674.78795796654,-19365713.04071469,60619865391.93236,0.32257534758794326,0.25
135.25,6896384.02293243,1171912.192608467,-1101.5379786769238,8602.921135617586,6995247.728203918,8673.156172012781,-19365617.045408867,60619953658.053604,0.32257818735821825,0.25
140.25,6890781.021273272,1214910.419579552,-1141.6580911495191,8595.981988624388,6997061.555449036,8671.464094709847,-19365521.17498797,60620041856.95466,0.3225810212619718,0.25
145.25,6884977.572166188,1257873.3698953418,-1181.7133508696934,8588.798381916213,6998940.032885214,8669.711880381621,-19365425.433784917,60620129986.25914,0.32258384909741616,0.25
150.25,6878974.005069993,1300799.823154353,-1221.7015726831148,8581.371118774556,7000883.054468707,8667.899688553996,-19365329.82610307,60620218043.602165,0.3225866706643505,0.25
155.25,6872770.660338615,1343688.5630324692,-1261.6205844135895,8573.701028103958,7002890.510641699,8666.027683911872,-19365234.356215365,60620306026.63078,0.322589485764214,0.25
160.25,6866367.889155282,1386538.3774104626,-1301.4682272504594,8565.788964182197,7004962.2883535065,8664.096036254905,-19365139.028363362,60620393933.00444,0.32259229420013213,0.25
165.25,6859766.053464774,1429348.0585002538,-1341.2423561302585,8557.635806403581,7007098.2710824115,8662.104920451988,-19365043.84675654,60620481760.39502,0.3225950957769557,0.25
170.25,6852965.525903812,1472116.402969872,-1380.9408401124945,8549.242459015593,7009298.33885811,8660.054516394546,-19364948.81557125,60620569506.48759,0.3225978903013167,0.25
175.25,6845966.689729543,1514842.2120670835,-1420.5615627494153,8540.609850848909,7011562.368284745,8657.945008948629,-19364853.938949995,60620657168.98043,0.3226006775816627,0.25
180.25,6838769.938746226,1557524.2917416517,-1460.102422449627,8531.738935041047,7013890.23256455,8655.776587905824,-19364759.221000597,60620744745.58558,0.3226034574283069,0.25
185.25,6831375.677230086,1600161.4527662038,-1499.561332835434,8522.630688753745,7016281.801522062,8653.549447933045,-19364664.665795386,60620832234.02901,0.32260622965346386,0.25
190.25,6823784.319852419,1642752.5108556703,-1538.9362230937747,8513.28611288428,7018736.941628911,8651.263788521215,-19364570.27737032,60620919632.05114,0.32260899407129867,0.25
195.25,6815996.291600943,1685296.2867852624,-1578.2250383206417,8503.706231770813,7021255.516029167,8648.919813932833,-19364476.05972439,60621006937.40699,0.3226117504979588,0.25
200.25,6808012.027699444,1727791.6065069681,-1617.4257398588609,8493.89209289202,7023837.384565237,8646.517733148505,-19364382.01681885,60621094147.86654,0.32261449875161663,0.25
205.25,6799831.973525765,1770237.3012645259,-1656.5363056291287,8483.84476656112,7026482.4038043115,8644.057759812455,-19364288.15257626,60621181261.21516,0.32261723865251085,0.25
210.25,6791456.584528134,1812632.2077068682,-1695.5547304541972,8473.56534561446,7029190.427065326,8641.54011217699,-19364194.470880054,60621268275.253746,0.32261997002297715,0.25
215.25,6782886.326139895,1854975.1679999789,-1734.4790263761063,8463.05494509488,7031961.304446442,8638.965013046038,-19364100.97557371,60621355187.79914,0.3226226926874879,0.25
220.25,6774121.673692684,1897265.0299371693,-1773.3072229663749,8452.314701929996,7034794.88285305,8636.332689717707,-19364007.670460053,60621441996.6844,0.32262540647268734,0.25
225.25,6765163.112328046,1939500.647047723,-1812.0373676290494,8441.345774605574,7037691.00602624,8633.643373925946,-19363914.559300683,60621528699.75904,0.3226281112074222,0.25
230.25,6756011.136907576,1981680.8787039085,-1850.6675258965365,8430.149342834193,7040649.514571783,8630.897301781302,-19363821.645815358,60621615294.88933,0.32263080672277544,0.25
235.25,6746666.251921584,2023804.5902263112,-1889.1957817181315,8418.726607219387,7043670.245989567,8628.094713710856,-19363728.933681145,60621701779.95868,0.3226334928521023,0.25
240.25,6737128.97139634,2065870.652987485,-1927.6202377411678,8407.078788915383,7046753.03470349,8625.235854397273,-19363636.42653215,60621788152.86772,0.32263616943105283,0.25
245.25,6727399.818799933,2107877.9445138895,-1965.9390155847204,8395.207129282704,7049897.71209182,8622.320972717112,-19363544.127958722,60621874411.53475,0.32263883629760703,0.25
250.25,6717479.326946774,2149825.348586095,-2004.1502561058,8383.112889539754,7053104.106517967,8619.350321678341,-19363452.041506954,60621960553.89589,0.3226414932921026,0.25
255.25,6707368.037900793,2191711.7553372355,-2042.2521196579683,8370.797350410587,7056372.043361699,8616.32415835711,-19363360.17067813,60622046577.90537,0.3226441402572583,0.25
260.25,6697066.502877356,2233536.0613496955,-2080.242786342331,8358.261811769056,7059701.345050755,8613.242743833838,-19363268.518928297,60622132481.535706,0.3226467770382006,0.25
265.25,6686575.282143933,2275297.1697500064,-2118.12045625085,8345.507592279533,7063091.831092854,8610.106343128617,-19363177.089667685,60622218262.778,0.3226494034824917,0.25
270.25,6675894.94491961,2316993.99030194,-2155.8833497019386,8332.536029034341,7066543.31810812,8606.915225135974,-19363085.886260107,60622303919.64229,0.3226520194401519,0.25
275.25,6665026.069273385,2358625.439497778,-2193.5297074682817,8319.348477188121,7070055.619861835,8603.669662559007,-19362994.91202283,60622389450.15748,0.32265462476367734,0.25
280.25,6653969.242021383,2400190.440647756,-2231.0577909968742,8305.946309589335,7073628.547297595,8600.369931842964,-19362904.1702258,60622474852.37185,0.32265721930806857,0.25
285.25,6642725.058622969,2441687.923967642,-2268.465882621218,8292.330916409026,7077261.908570782,8597.016313108254,-19362813.664091513,60622560124.353035,0.3226598029308432,0.25
290.25,6631294.123075845,2483116.826664473,-2305.7522857656754,8278.503704767094,7080955.509082406,8593.60909008294,-19362723.39679437,60622645264.18845,0.32266237549206106,0.25
295.25,6619677.047810105,2524476.0930204014,-2342.9153251419502,8264.466098356217,7084709.15151324,8590.148550034757,-19362633.371460415,60622730269.98535,0.3226649368543393,0.25
300.25,6607874.453581357,2565764.674474663,-2379.9533469376697,8250.219537063627,7088522.635858279,8586.634983702648,-19362543.591167092,60622815139.87097,0.32266748688286523,0.25
305.25,6595886.969362916,2606981.529703647,-2416.864718997078,8235.765476590934,7092395.759461502,8583.068685227907,-19362454.05894269,60622899871.99289,0.32267002544541923,0.25
310.25,6583715.232237091,2648125.624699061,-2453.6478309938234,8221.105388072143,7096328.317050902,8579.449952084895,-19362364.777766213,60622984464.519005,0.3226725524123826,0.25
315.25,6571359.887285663,2689195.9328441834,-2490.301094595839,8206.240757690091,7100320.100773819,8575.779085011418,-19362275.750566952,60623068915.63792,0.3226750676567551,0.25
320.25,6558821.587479521,2730191.434988197,-2526.822943622321,8191.173086291445,7104370.900232496,8572.056387938748,-19362186.98022431,60623153223.5589,0.32267757105416345,0.25
325.25,6546100.993567557,2771111.1195185827,-2563.2118341928076,8175.903889000481,7108480.502519908,8568.282167921365,-19362098.469567493,60623237386.51222,0.3226800624828769,0.25
330.25,6533198.773964823,2811953.9824315966,-2599.4662448683903,8160.4346948317625,7112648.692255817,8564.456735066395,-19362010.22137536,60623321402.749054,0.3226825418238077,0.25
335.25,6520115.604640007,2852719.0274007954,-2635.5846767850494,8144.76704630198,7116875.251623051,8560.58040246284,-19361922.238376103,60623405270.54193,0.3226850089605309,0.25
340.25,6506852.169002253,2893405.265843628,-2671.5656537791515,8128.902499041054,7121159.96040399,8556.65348611058,-19361834.523247056,60623488988.18469,0.32268746377928625,0.25
345.25,6493409.157787373,2934011.716986068,-2707.4077225051265,8112.84262140269,7125502.5960172415,8552.676304849172,-19361747.078614697,60623572553.99256,0.3226899061689813,0.25
350.25,6479787.268943504,2974537.407925318,-2743.1094525453727,8096.5889940746065,7129902.933554523,8548.649180286546,-19361659.9070542,60623655966.30248,0.32269233602120645,0.25
355.25,6465987.207516211,3014981.3736905474,-2778.669436512384,8080.143209688525,7134360.745817682,8544.572436727518,-19361573.011089608,60623739223.47302,0.3226947532302281,0.25
360.25,6452009.685533113,3055342.6573016862,-2814.0862901431874,8063.5068724301655,7138875.803355906,8540.44640110225,-19361486.39319352,60623822323.88458,0.3226971576929988,0.25
365.25,6437855.421888056,3095620.3098262683,-2849.358652386096,8046.681597649378,7143447.874503063,8536.27140289463,-19361400.055787057,60623905265.9395,0.32269954930915706,0.25
370.25,6423525.142224856,3135813.3904343294,-2884.485185479845,8029.6690114705625,7148076.725415172,8532.047774070616,-19361314.0012398,60623988048.06211,0.3227019279810288,0.25
375.25,6409019.57882068,3175920.9664513553,-2919.464575025142,8012.470750403572,7152762.120108017,8527.775849006557,-19361228.231869683,60624070668.69887,0.3227042936136276,0.25
380.25,6394339.470469082,3215942.113409286,-2954.2955300487024,7995.088460955238,7157503.820494838,8523.455964417564,-19361142.749942996,60624153126.318405,0.32270664611465305,0.25
385.25,6379485.562362732,3255875.915095576,-2988.9767830598257,7977.523799241671,7162301.586424157,8519.088459285884,-19361057.557674363,60624235419.411674,0.3227089853944897,0.25
390.25,6364458.605975883,3295721.4636003245,-3023.507090099557,7959.778430601507,7167155.175717654,8514.67367478938,-19360972.65722674,60624317546.49184,0.3227113113662014,0.25
395.25,6349259.358946618,3335477.8593614744,-3057.885230782521,7941.854029210248,7172064.3442081455,8510.2119542301,-19360888.05071135,60624399506.09463,0.32271362394553266,0.25
400.25,6333888.584958877,3375144.211208077,-3092.110008331476,7923.752277695828,7177028.845777601,8505.703642962968,-19360803.74018787,60624481296.778046,0.32271592305089714,0.25
405.25,6318347.053624376,3414719.6364016477,-3126.180249604678,7905.474866755572,7182048.432395233,8501.149088324613,-19360719.727664396,60624562917.12272,0.3227182086033755,0.25
410.25,6302635.540364356,3454203.260675607,-3160.0948051161076,7887.023494774696,7187122.85415561,8496.548639562412,-19360636.01509744,60624644365.73179,0.32272048052670904,0.25
415.25,6286754.826291279,3493594.2182728136,-3193.852549048656,7868.399867446458,7192251.859316797,8491.902647763694,-19360552.60439215,60624725641.23096,0.3227227387472898,0.25
420.25,6270705.698090469,3532891.6519812094,-3227.4523792603395,7849.605697394137,7197435.194338522,8487.211465785198,-19360469.497402303,60624806742.26857,0.322724983194153,0.25
425.25,6254488.947901732,3572094.713167574,-3260.8932172836276,7830.642703794937,7202672.603920343,8482.475448182757,-19360386.695930474,60624887667.515625,0.3227272137989682,0.25
430.25,6238105.37320099,3611202.5618094066,-3294.1740083179743,7811.512612005998,7207963.831039796,8477.694951141286,-19360304.201728173,60624968415.66574,0.32272943049602765,0.25
435.25,6221555.776681992,3650214.3665249366,-3327.293721215633,7792.217153192567,7213308.6169905495,8472.870332405038,-19360222.016495913,60625048985.43524,0.322731633222235,0.25
440.25,6204840.966138091,3689129.304601293,-3360.2513484608467,7772.758063958551,7218706.701420519,8468.001951208185,-19360140.14188353,60625129375.56313,0.32273382191709443,0.25
445.25,6187961.754344137,3727946.562020821,-3393.045906142522,7753.137085979488,7224157.8223699285,8463.090168205761,-19360058.57949026,60625209584.811066,0.3227359965226961,0.25
450.25,6170918.958938552,3766665.333485571,-3425.676433920457,7733.3559656381085,7229661.716309362,8458.13534540495,-19359977.330864802,60625289611.96342,0.3227381569837037,0.25
455.25,6153713.402305541,3805284.8224399826,-3458.14199498524,7713.4164536625885,7235218.1181777045,8453.137846096752,-19359896.39750585,60625369455.8272,0.32274030324734077,0.25
460.25,6136345.911457569,3843804.2410917473,-3490.4416760119116,7693.320304767595,7240826.761420062,8448.09803478808,-19359815.78086198,60625449115.23211,0.32274243526337315,0.25
465.25,6118817.317918052,3882222.8104309016,-3522.5745871074896,7673.069277298254,7246487.378025568,8443.016277134248,-19359735.482332192,60625528589.03042,0.32274455298409316,0.25
470.25,6101128.457604328,3920539.7602471397,-3554.539861752465,7652.66513287714,7252199.698565123,8437.892939871941,-19359655.503265873,60625607876.09704,0.3227466563643059,0.25
475.25,6083280.170710953,3958754.329145366,-3586.3366567363737,7632.10963605439,7257963.452229024,8432.728390752622,-19359575.844963208,60625686975.3295,0.3227487453613102,0.25
480.25,6065273.301593302,3996865.7645595055,-3617.9641520875407,7611.404553961027,7263778.366864476,8427.522998476432,-19359496.50867548,60625765885.647736,0.3227508199348782,0.25
485.25,6047108.698651575,4034873.3227645974,-3649.421550997126,7590.551655965619,7269644.169013017,8422.277132626585,-19359417.495605312,60625844605.99431,0.32275288004724023,0.25
490.25,6028787.214215154,4072776.268887168,-3680.708079737558,7569.552713334343,7275560.583947782,8416.991163604287,-19359338.806907006,60625923135.3341,0.3227549256630623,0.25
495.25,6010309.704427418,4110573.8769139256,-3711.822987575482,7548.4094988945635,7281527.33571066,8411.665462564204,-19359260.4436867,60626001472.65448,0.3227569567494303,0.25
500.25,5991677.02913098,4148265.429698767,-3742.7655466793262,7527.123786701982,7287544.147149282,8406.300401350441,-19359182.407002896,60626079616.96512,0.3227589732758255,0.25
505.25,5972890.051753405,4185850.2189681414,-3773.5350520216134,7505.697351711467,7293610.739953869,8400.89635243313,-19359104.697866768,60626157567.29792,0.32276097521410435,0.25
510.25,5953949.639193437,4223327.545324768,-3804.1308212761082,7484.13196945165,7299726.8346939245,8395.453688845591,-19359027.31724231,60626235322.70704,0.32276296253847886,0.25
515.25,5934856.661707749,4260696.718249742,-3834.5521947099387,7462.429415703325,7305892.150854745,8389.972784122072,-19358950.266046904,60626312882.26872,0.3227649352254917,0.25
520.25,5915611.992798239,4297957.056103036,-3864.798535070795,7440.591466181765,7312106.406873756,8384.454012236114,-19358873.54515166,60626390245.081276,0.32276689325399416,0.25
525.25,5896216.509099904,4335107.886122428,-3894.8692274693317,7418.619896223012,7318369.320176669,8378.897747539559,-19358797.15538168,60626467410.265015,0.3227688366051247,0.25
530.25,5876671.090269314,4372148.544420872,-3924.7636792568755,7396.516480474192,7324680.607213441,8373.304364702162,-19358721.097516544,60626544376.962074,0.3227707652622823,0.25
535.25,5856976.618873704,4409078.375982318,-3954.4813198985717,7374.282992587939,7331039.983494028,8367.674238651889,-19358645.37229067,60626621144.33637,0.32277267921110364,0.25
540.25,5837133.98028073,4445896.734656027,-3984.0216008420916,7351.921204920983,7337447.163623945,8362.007744515859,-19358569.98039367,60626697711.57364,0.3227745784394408,0.25
545.25,5817144.062548857,4482602.983149379,-4013.3839953819897,7329.432888236939,7343901.861339592,8356.305257561955,-19358494.922470905,60626774077.8811,0.32277646293733186,0.25
550.25,5797007.756318469,4519196.49301922,-4042.5679985198667,7306.819811413379,7350403.789543382,8350.567153141155,-19358420.199123725,60626850242.48752,0.3227783326969776,0.25
