t,x,y,vx,vy,r,v,energy,h,e,dt_eff
0,3800000,0,0,5200,3800000,5200,2297142.105,1.976e+10,1.409368474,0
22.296456,3799266.013,115934.107,-65.82782938,5198.99587,3801034.458,5199.412597,2297142.105,1.976e+10,1.409368474,1.1148228
26.900352,3798931.685,139868.7236,-79.40815247,5198.538674,3801505.65,5199.145122,2297142.105,1.976e+10,1.409368474,0.233256
31.5258336,3798532.842,163913.2407,-93.04527071,5197.993402,3802067.766,5198.826101,2297142.105,1.976e+10,1.409368474,0.2293248
36.166896,3798069.276,188036.0157,-106.7202137,5197.359848,3802721.101,5198.455404,2297142.105,1.976e+10,1.409368474,0.229344
40.8029712,3797542.866,212129.7331,-120.3711665,5196.640668,3803463.007,5198.034576,2297142.105,1.976e+10,1.409368474,0.2318016
45.5170416,3796942.732,236625.1662,-134.2410339,5195.821108,3804308.817,5197.554968,2297142.105,1.976e+10,1.409368474,0.2404128
50.299752,3796267.069,261473.1048,-148.300524,5194.898842,3805261.075,5197.015203,2297142.105,1.976e+10,1.409368474,0.243336
54.9392448,3795547.417,285572.5562,-161.9259259,5193.917038,3806275.329,5196.440532,2297142.105,1.976e+10,1.409368474,0.2415168
59.3710224,3794800.981,308588.6148,-174.9281901,5192.899245,3807327.333,5195.844729,2297142.105,1.976e+10,1.409368474,0.2332416
64.1390784,3793933.594,333345.8671,-188.9015652,5191.717239,3808549.801,5195.152711,2297142.105,1.976e+10,1.409368474,0.2472528
68.9472912,3792991.474,358305.7005,-202.9751238,5190.43425,3809877.596,5194.401468,2297142.105,1.976e+10,1.409368474,0.2305584
73.5664512,3792022.707,382278.1343,-216.4775901,5189.115907,3811242.945,5193.62941,2297142.105,1.976e+10,1.409368474,0.2261664
78.1872048,3790991.247,406252.5519,-229.9661789,5187.713285,3812696.653,5192.80787,2297142.105,1.976e+10,1.409368474,0.2254896
82.8633984,3789884.003,430507.8192,-243.5965836,5186.2088,3814257.167,5191.926522,2297142.105,1.976e+10,1.409368474,0.2265888
87.477504,3788729.034,454433.9486,-257.0251473,5184.640778,3815884.944,5191.007795,2297142.105,1.976e+10,1.409368474,0.229848
92.1063312,3787508.173,478428.9541,-270.4746189,5182.984753,3817605.588,5190.037328,2297142.105,1.976e+10,1.409368474,0.2283504
96.7317024,3786226.09,502398.1961,-283.8910002,5181.247291,3819412.514,5189.018943,2297142.105,1.976e+10,1.409368474,0.2375328
101.524464,3784832.205,527226.1921,-297.7674425,5179.360179,3821377.013,5187.912616,2297142.105,1.976e+10,1.409368474,0.240192
106.377384,3783353.125,552356.3953,-311.7904267,5177.359849,3823461.581,5186.739657,2297142.105,1.976e+10,1.409368474,0.243528
111.1711248,3781825.338,577170.4044,-325.6138996,5175.295934,3825614.796,5185.529135,2297142.105,1.976e+10,1.409368474,0.2405856
115.8799488,3780260.166,601535.0223,-339.1637679,5173.183923,3827820.699,5184.290111,2297142.105,1.976e+10,1.409368474,0.2309376
120.5702304,3778637.799,625793.616,-352.6308611,5170.997301,3830107.213,5183.007005,2297142.105,1.976e+10,1.409368474,0.2315328
125.2722192,3776948.052,650102.272,-366.101006,5168.72264,3832488.689,5181.671899,2297142.105,1.976e+10,1.409368474,0.2326224
129.8282832,3775250.397,673646.1328,-379.1228968,5166.440177,3834881.311,5180.331869,2297142.105,1.976e+10,1.409368474,0.2255664
134.3805984,3773494.952,697160.0606,-392.1033908,5164.083012,3837355.379,5178.947617,2297142.105,1.976e+10,1.409368474,0.2269968
139.0441776,3771635.403,721237.387,-405.3683362,5161.58937,3839976.169,5177.482816,2297142.105,1.976e+10,1.409368474,0.2343312
143.725056,3769706.829,745392.1458,-418.6480793,5159.006759,3842694.241,5175.965316,2297142.105,1.976e+10,1.409368474,0.234648
148.3723584,3767730.676,769361.5001,-431.7974612,5156.364222,3845479.368,5174.412144,2297142.105,1.976e+10,1.409368474,0.2279328
153.052032,3765679.094,793485.2226,-445.0020916,5153.624866,3848370.803,5172.801574,2297142.105,1.976e+10,1.409368474,0.237024
157.7649984,3763550.55,817767.4273,-458.2628013,5150.787096,3851370.705,5171.132613,2297142.105,1.976e+10,1.409368474,0.2324208
162.5147328,3761342.263,842225.3487,-471.5875103,5147.84768,3854482.995,5169.403304,2297142.105,1.976e+10,1.409368474,0.2370096
167.2766832,3759064.86,866731.9695,-484.9057203,5144.821233,3857692.695,5167.622188,2297142.105,1.976e+10,1.409368474,0.2364864
171.7342176,3756875.661,889658.7393,-497.3346639,5141.916744,3860778.083,5165.912269,2297142.105,1.976e+10,1.409368474,0.2406576
176.2322736,3754610.486,912780.6468,-509.838627,5138.916338,3863970.55,5164.145288,2297142.105,1.976e+10,1.409368474,0.2456064
180.9779328,3752159.746,937160.5333,-522.9886475,5135.675714,3867424.546,5162.236159,2297142.105,1.976e+10,1.409368474,0.2322192
185.78232,3749615.216,961826.2714,-536.2562671,5132.317192,3871010.726,5160.256829,2297142.105,1.976e+10,1.409368474,0.245304
190.57272,3747014.74,986403.9484,-549.4390935,5128.891249,3874675.755,5158.236982,2297142.105,1.976e+10,1.409368474,0.236544
195.3564288,3744354.989,1010930.736,-562.5565674,5125.393915,3878424.324,5156.174228,2297142.105,1.976e+10,1.409368474,0.2410992
200.1649344,3741618.328,1035567.617,-575.6938402,5121.802499,3882281.288,5154.055125,2297142.105,1.976e+10,1.409368474,0.2401536
204.996936,3738804.779,1060307.302,-588.8457107,5118.117613,3886246.615,5151.879965,2297142.105,1.976e+10,1.409368474,0.246888
209.5042704,3736123.092,1083368.495,-601.0682762,5114.612419,3890026.1,5149.810022,2297142.105,1.976e+10,1.409368474,0.2484432
214.01196,3733386.197,1106415.557,-613.2470279,5111.042078,3893883.394,5147.700753,2297142.105,1.976e+10,1.409368474,0.2482512
218.803248,3730417.041,1130894.801,-626.1421117,5107.176739,3898068.028,5145.416231,2297142.105,1.976e+10,1.409368474,0.2386176
223.774848,3727270.966,1156275.514,-639.4672599,5103.090126,3902502.008,5142.999826,2297142.105,1.976e+10,1.409368474,0.2483952
228.4851072,3724229.281,1180303.134,-652.0392502,5099.147931,3906788.863,5140.667739,2297142.105,1.976e+10,1.409368474,0.2432688
233.271464,3721077.921,1204699.75,-664.7610311,5095.072706,3911230.29,5138.255843,2297142.105,1.976e+10,1.409368474,0.209516
237.511248,3718235.67,1226294.002,-675.984552,5091.405139,3915236.069,5136.084248,2297142.105,1.976e+10,1.409368474,0.21124
242.2224288,3715021.706,1250270.81,-688.405134,5087.266954,3919765.729,5133.632894,2297142.105,1.976e+10,1.409368474,0.2413632
247.042128,3711673.291,1274779.569,-701.0557478,5082.965816,3924484.879,5131.083769,2297142.105,1.976e+10,1.409368474,0.240624
251.8893744,3708244.382,1299407.335,-713.7207356,5078.571987,3929317.475,5128.478402,2297142.105,1.976e+10,1.409368474,0.2415936
256.7557632,3704740.321,1324110.77,-726.3765642,5074.09301,3934255.988,5125.821182,2297142.105,1.976e+10,1.409368474,0.2411808
261.530416,3701242.597,1348327.181,-738.7354998,5069.633333,3939185.57,5123.174043,2297142.105,1.976e+10,1.409368474,0.240532
266.110944,3697831.75,1371538.865,-750.5370488,5065.295161,3943992.711,5120.597712,2297142.105,1.976e+10,1.409368474,0.231016
270.627784,3694415.512,1394408.225,-762.1212984,5060.960721,3948807.449,5118.022303,2297142.105,1.976e+10,1.409368474,0.227912
275.216656,3690891.336,1417622.114,-773.8356331,5056.500394,3953774.312,5115.370742,2297142.105,1.976e+10,1.409368474,0.222436
279.842304,3687284.642,1441001.196,-785.5875553,5051.947219,3958857.472,5112.662565,2297142.105,1.976e+10,1.409368474,0.230352
284.422976,3683659.577,1464132.075,-797.1689914,5047.382616,3963966.525,5109.946152,2297142.105,1.976e+10,1.409368474,0.232328
288.994752,3679988.783,1487197.06,-808.67165,5042.772408,3969140.025,5107.201132,2297142.105,1.976e+10,1.409368474,0.234864
293.672384,3676178.703,1510774.154,-820.3819395,5037.999962,3974509.832,5104.357956,2297142.105,1.976e+10,1.409368474,0.241616
298.413408,3672261.238,1534647.855,-832.1898294,5033.106434,3980030.984,5101.441001,2297142.105,1.976e+10,1.409368474,0.244232
303.032628,3668390.714,1557885.765,-843.6347174,5028.284859,3985485.979,5098.565304,2297142.105,1.976e+10,1.409368474,0.214596
307.243596,3664816.319,1579050.376,-854.0164186,5023.843884,3990523.618,5095.91517,2297142.105,1.976e+10,1.409368474,0.209132
311.8229184,3660879.759,1602045.027,-865.2499213,5018.965897,3996071.681,5093.002661,2297142.105,1.976e+10,1.409368474,0.2407584
316.6638192,3656662.556,1626328.753,-877.060836,5013.755156,4002015.275,5089.889633,2297142.105,1.976e+10,1.409368474,0.2442672
321.257976,3652607.571,1649351.274,-888.2082416,5008.759427,4007730.242,5086.90327,2297142.105,1.976e+10,1.409368474,0.217128
325.593032,3648734.44,1671054.228,-898.6716886,5004.001025,4013188.912,5084.057146,2297142.105,1.976e+10,1.409368474,0.213064
330.36732,3644416.537,1694932.163,-910.1328317,4998.711428,4019274.428,5080.891429,2297142.105,1.976e+10,1.409368474,0.243792
335.181936,3640006.907,1718986.095,-921.624085,4993.325969,4025489.222,5077.666313,2297142.105,1.976e+10,1.409368474,0.243048
339.9625104,3635573.874,1742844.18,-932.9674381,4987.928663,4031736.999,5074.432046,2297142.105,1.976e+10,1.409368474,0.2470944
344.71584,3631112.497,1766540.598,-944.1799406,4982.513711,4038024.722,5071.185131,2297142.105,1.976e+10,1.409368474,0.217532
349.16964,3626884.025,1788720.339,-954.6256858,4977.396987,4043984.197,5068.115129,2297142.105,1.976e+10,1.409368474,0.2151668572
354.0486864,3622198.582,1812991.521,-966.0016142,4971.744883,4050587.713,5064.721739,2297142.105,1.976e+10,1.409368474,0.2394768
358.66004,3617719.342,1835905.592,-976.6885503,4966.358728,4056900.613,5061.485902,2297142.105,1.976e+10,1.409368474,0.227072
363.426864,3613037.441,1859565.992,-987.6692748,4960.746767,4063499.136,5058.112205,2297142.105,1.976e+10,1.409368474,0.239656
367.992344,3608504.371,1882201.834,-998.122544,4955.330541,4069887.902,5054.854042,2297142.105,1.976e+10,1.409368474,0.243808
372.74126,3603738.683,1905720.822,-1008.929495,4949.654684,4076604.512,5051.43744,2297142.105,1.976e+10,1.409368474,0.2387
377.408892,3599004.711,1928810.889,-1019.485347,4944.035085,4083276.424,5048.052426,2297142.105,1.976e+10,1.409368474,0.208372
382.106012,3594191.248,1952020.255,-1030.041499,4938.339923,4090060.367,5044.619578,2297142.105,1.976e+10,1.409368474,0.232828
386.738592,3589395.51,1974884.425,-1040.387182,4932.68449,4096819.329,5041.208363,2297142.105,1.976e+10,1.409368474,0.239132
391.3757616,3584547.173,1997744.921,-1050.677873,4926.985966,4103652.422,5037.768822,2297142.105,1.976e+10,1.409368474,0.2370864
396.2171616,3579434.553,2021583.95,-1061.351962,4920.997338,4110857.987,5034.151645,2297142.105,1.976e+10,1.409368474,0.2360784
401.008464,3574324.129,2045147.661,-1071.845211,4915.032224,4118060.458,5030.546086,2297142.105,1.976e+10,1.409368474,0.231728
405.651792,3569323.721,2067956.278,-1081.947436,4909.215689,4125107.876,5027.027843,2297142.105,1.976e+10,1.409368474,0.240468
410.3267349,3564242.034,2090892.824,-1092.051748,4903.324935,4132269.845,5023.462196,2297142.105,1.976e+10,1.409368474,0.2195451428
414.889848,3559236.499,2113254.07,-1101.849709,4897.542387,4139324.488,5019.959583,2297142.105,1.976e+10,1.409368474,0.217776
419.556024,3554071.827,2136093.005,-1111.802835,4891.596622,4146603.414,5016.355555,2297142.105,1.976e+10,1.409368474,0.22164
423.959912,3549155.001,2157622.638,-1121.135079,4885.95555,4153533.034,5012.933822,2297142.105,1.976e+10,1.409368474,0.209608
428.49996,3544043.272,2179791.854,-1130.693368,4880.110789,4160737.343,5009.386071,2297142.105,1.976e+10,1.409368474,0.239328
433.251672,3538646.909,2202966.14,-1140.629275,4873.962499,4168342.807,5005.651364,2297142.105,1.976e+10,1.409368474,0.2318448
437.867564,3533359.74,2225449.983,-1150.214539,4867.960338,4175794.377,5002.002733,2297142.105,1.976e+10,1.409368474,0.244964
442.56456,3527934.412,2248300.372,-1159.900777,4861.823563,4183440.663,4998.269517,2297142.105,1.976e+10,1.409368474,0.2258592
447.3759072,3522329.998,2271677.111,-1169.752274,4855.507729,4191339.346,4994.424461,2297142.105,1.976e+10,1.409368474,0.2365008
452.171012,3516697.516,2294944.63,-1179.499464,4849.184202,4199277.59,4990.571752,2297142.105,1.976e+10,1.409368474,0.237164
456.923628,3511068.99,2317975.992,-1189.090302,4842.888954,4207210.257,4986.733317,2297142.105,1.976e+10,1.409368474,0.232396
461.653128,3505422.754,2340865.568,-1198.565347,4836.597706,4215167.884,4982.894365,2297142.105,1.976e+10,1.409368474,0.235716
466.32564,3499800.705,2363450.059,-1207.858519,4830.356964,4223091.422,4979.08331,2297142.105,1.976e+10,1.409368474,0.233388
470.995292,3494138.872,2385991.535,-1217.078814,4824.095684,4231071.031,4975.256778,2297142.105,1.976e+10,1.409368474,0.221324
475.635672,3488470.034,2408362.691,-1226.174824,4817.850272,4239060.513,4971.43701,2297142.105,1.976e+10,1.409368474,0.241824
480.169024,3482891.331,2430189.831,-1234.997096,4811.727104,4246922.961,4967.689156,2297142.105,1.976e+10,1.409368474,0.226088
484.732544,3477235.254,2452134.139,-1243.814318,4805.542112,4254894.458,4963.900589,2297142.105,1.976e+10,1.409368474,0.220448
489.2899104,3471546.793,2474020.641,-1252.555888,4799.345039,4262911.595,4960.101719,2297142.105,1.976e+10,1.409368474,0.2327184
493.84006,3465827.74,2495844.265,-1261.220132,4793.138093,4270971.848,4956.293878,2297142.105,1.976e+10,1.409368474,0.227396
498.3704832,3460094.457,2517545.174,-1269.783889,4786.939173,4279052.156,4952.488038,2297142.105,1.976e+10,1.409368474,0.2414112
503.07288,3454102.659,2540040.096,-1278.606426,4780.485712,4287496.807,4948.522813,2297142.105,1.976e+10,1.409368474,0.2431392
507.841488,3447984.291,2562820.716,-1287.484349,4773.922108,4296119.842,4944.486651,2297142.105,1.976e+10,1.409368474,0.2396016
512.39056,3442108.292,2584523.357,-1295.889075,4767.643266,4304401.291,4940.622512,2297142.105,1.976e+10,1.409368474,0.233876
517.089648,3435998.525,2606911.659,-1304.504999,4761.140201,4313012.203,4936.617192,2297142.105,1.976e+10,1.409368474,0.2367552
521.542904,3430171.165,2628100.484,-1312.608452,4754.961869,4321225.101,4932.808867,2297142.105,1.976e+10,1.409368474,0.233236
526.081584,3424195.029,2649667.417,-1320.80568,4748.650146,4329647.678,4928.915282,2297142.105,1.976e+10,1.409368474,0.239616
530.745192,3418015.794,2671798.107,-1329.163852,4742.149689,4338356.497,4924.902052,2297142.105,1.976e+10,1.409368474,0.231288
535.3804128,3411835.698,2693764.016,-1337.406349,4735.674379,4347066.529,4920.901093,2297142.105,1.976e+10,1.409368474,0.2284512
539.997192,3405642.361,2715612.665,-1345.552016,4729.211173,4355795.224,4916.904366,2297142.105,1.976e+10,1.409368474,0.228456
544.6540704,3399357.282,2737620.821,-1353.703875,4722.678658,4364653.216,4912.861476,2297142.105,1.976e+10,1.409368474,0.2303808
549.2595552,3393104.377,2759356.145,-1361.702193,4716.205841,4373465.863,4908.852249,2297142.105,1.976e+10,1.409368474,0.2282064
553.801232,3386902.172,2780761.111,-1369.527974,4709.811226,4382207.055,4904.888241,2297142.105,1.976e+10,1.409368474,0.233524
558.344416,3380662.487,2802144.098,-1377.295226,4703.403659,4391001.07,4900.912988,2297142.105,1.976e+10,1.409368474,0.225124
562.84692,3374443.993,2823306.877,-1384.93281,4697.043337,4399765.22,4896.963855,2297142.105,1.976e+10,1.409368474,0.223688
567.432712,3368075.261,2844831.669,-1392.650364,4690.55556,4408741.111,4892.932301,2297142.105,1.976e+10,1.409368474,0.22676
571.920976,3361807.839,2865869.854,-1400.144084,4684.196728,4417574.217,4888.977648,2297142.105,1.976e+10,1.409368474,0.21802
576.426264,3355482.953,2886959.114,-1407.607045,4677.805321,4426488.312,4884.99951,2297142.105,1.976e+10,1.409368474,0.22212
581.055688,3348948.911,2908599.441,-1415.214098,4671.229535,4435697.185,4880.903227,2297142.105,1.976e+10,1.409368474,0.22246
585.719192,3342331.308,2930368.277,-1422.814332,4664.597426,4445023.826,4876.768374,2297142.105,1.976e+10,1.409368474,0.233536
590.4931056,3335520.474,2952620.441,-1430.529462,4657.800661,4454622.801,4872.527223,2297142.105,1.976e+10,1.409368474,0.2359056
595.152124,3328838.194,2974305.755,-1437.995729,4651.160593,4464040.596,4868.380283,2297142.105,1.976e+10,1.409368474,0.228644
599.756076,3322200.864,2995704.358,-1445.312703,4644.592868,4473395.04,4864.275046,2297142.105,1.976e+10,1.409368474,0.223668
604.463976,3315378.986,3017554.817,-1452.732396,4637.871093,4483009.579,4860.069927,2297142.105,1.976e+10,1.409368474,0.234336
609.1076304,3308616.126,3039076.083,-1459.989221,4631.235869,4492540.941,4855.915382,2297142.105,1.976e+10,1.409368474,0.2361456
613.6112832,3302025.102,3059919.062,-1466.969068,4624.796272,4501830.122,4851.879925,2297142.105,1.976e+10,1.409368474,0.2364432
618.280836,3295158.233,3081499.196,-1474.145803,4618.115374,4511508.071,4847.689702,2297142.105,1.976e+10,1.409368474,0.2367
622.809672,3288466.417,3102399.204,-1481.047966,4611.632307,4520939.305,4843.620094,2297142.105,1.976e+10,1.409368474,0.226872
627.333184,3281751.394,3123245.326,-1487.884978,4605.153889,4530403.247,4839.549985,2297142.105,1.976e+10,1.409368474,0.21208
631.970512,3274835.445,3144585.531,-1494.835129,4598.509859,4540150.367,4835.37227,2297142.105,1.976e+10,1.409368474,0.224872
636.5316,3268001.891,3165544.832,-1501.613145,4591.972945,4549781.362,4831.258383,2297142.105,1.976e+10,1.409368474,0.233376
640.9882,3261295.148,3185995.183,-1508.180729,4585.584189,4559233.636,4827.234349,2297142.105,1.976e+10,1.409368474,0.231632
645.6746352,3254211.087,3207469.481,-1515.028504,4578.864711,4569217.687,4822.998384,2297142.105,1.976e+10,1.409368474,0.2408352
650.37414,3247075.185,3228972.043,-1521.835458,4572.125684,4579274.802,4818.746354,2297142.105,1.976e+10,1.409368474,0.227268
655.119896,3239836.734,3250654.087,-1528.648843,4565.319985,4589476.447,4814.448447,2297142.105,1.976e+10,1.409368474,0.23446
659.77056,3232712.09,3271870.348,-1535.26699,4558.65077,4599517.696,4810.233006,2297142.105,1.976e+10,1.409368474,0.210264
664.285728,3225765.701,3292438.806,-1541.637015,4552.176392,4609307.718,4806.13718,2297142.105,1.976e+10,1.409368474,0.224852
668.969484,3218529.685,3313744.363,-1548.18763,4545.46125,4619505.93,4801.88535,2297142.105,1.976e+10,1.409368474,0.218412
673.5755328,3211383.93,3334665.773,-1554.573022,4538.858905,4629576.932,4797.701267,2297142.105,1.976e+10,1.409368474,0.2342304
678.091964,3204348.771,3355150.601,-1560.780042,4532.386747,4639492.063,4793.596141,2297142.105,1.976e+10,1.409368474,0.23038
682.7612064,3197046.239,3376297.796,-1567.141042,4525.697808,4649784.023,4789.34982,2297142.105,1.976e+10,1.409368474,0.2391552
687.419304,3189731.672,3397363.401,-1573.430432,4519.027465,4660092.941,4785.111551,2297142.105,1.976e+10,1.409368474,0.2453088
691.959216,3182574.625,3417864.637,-1579.506336,4512.529271,4670179.859,4780.979051,2297142.105,1.976e+10,1.409368474,0.222856
696.6438672,3175160.611,3438988.563,-1585.720492,4505.827301,4680628.936,4776.713215,2297142.105,1.976e+10,1.409368474,0.2281776
701.2347312,3167866.909,3459659.134,-1591.755924,4499.263222,4690908.449,4772.531452,2297142.105,1.976e+10,1.409368474,0.2293536
705.85428,3160499.791,3480428.452,-1597.775129,4492.662212,4701291.433,4768.322463,2297142.105,1.976e+10,1.409368474,0.229752
710.4646848,3153119.656,3501126.265,-1603.728807,4486.078708,4711692.763,4764.120932,2297142.105,1.976e+10,1.409368474,0.2288064
715.0637184,3145730.499,3521742.799,-1609.614773,4479.516211,4722106.809,4759.929117,2297142.105,1.976e+10,1.409368474,0.2277552
719.5906848,3138430.81,3542006.807,-1615.357107,4473.061534,4732394.76,4755.802568,2297142.105,1.976e+10,1.409368474,0.2246304
724.1472912,3131057.192,3562373.995,-1621.085869,4466.569915,4742786.905,4751.648788,2297142.105,1.976e+10,1.409368474,0.2354256
728.815104,3123476.673,3583207.598,-1626.901554,4459.925734,4753470.65,4747.393624,2297142.105,1.976e+10,1.409368474,0.225768
733.387536,3116024.85,3603585.437,-1632.546841,4453.423399,4763973.013,4743.225607,2297142.105,1.976e+10,1.409368474,0.226032
737.93136,3108594.194,3623806.341,-1638.106586,4446.968019,4774445.545,4739.084062,2297142.105,1.976e+10,1.409368474,0.22416
742.474968,3101138.744,3643996.968,-1643.616336,4440.519497,4784953.021,4734.9433,2297142.105,1.976e+10,1.409368474,0.224424
