t,x,y,vx,vy,r,v,energy,h,e,dt_eff
0,2700000,0,0,2860,2700000,2860,-4030233.333,7722000000,0.007335766274,0
21.336816,2699315.451,61018.13646,-64.16321944,2859.274887,2700005.022,2859.994719,-4030233.333,7722000000,0.007335766274,1.0668408
25.6994928,2699006.916,73491.53781,-77.27947768,2858.94807,2700007.285,2859.992339,-4030233.333,7722000000,0.007335766274,0.2112576
30.2012448,2698628.562,86360.93512,-90.81210294,2858.547297,2700010.061,2859.989421,-4030233.333,7722000000,0.007335766274,0.2173056
34.6796064,2698191.732,99161.5313,-104.2723367,2858.084585,2700013.265,2859.986051,-4030233.333,7722000000,0.007335766274,0.2192448
39.2185488,2697687.489,112133.0252,-117.9122225,2857.550467,2700016.964,2859.982162,-4030233.333,7722000000,0.007335766274,0.2223456
43.6843296,2697130.959,124892.9266,-131.3295547,2856.960965,2700021.047,2859.977869,-4030233.333,7722000000,0.007335766274,0.2226816
48.1667568,2696512.106,137697.6009,-144.7939023,2856.305451,2700025.586,2859.973095,-4030233.333,7722000000,0.007335766274,0.2178528
52.6375152,2695834.754,150465.8723,-158.2199005,2855.587974,2700030.555,2859.96787,-4030233.333,7722000000,0.007335766274,0.2357232
57.236472,2695075.357,163596.7742,-172.0271284,2854.783596,2700036.126,2859.962012,-4030233.333,7722000000,0.007335766274,0.2422416
61.730496,2694271.953,176424.352,-185.5153231,2853.932607,2700042.02,2859.955815,-4030233.333,7722000000,0.007335766274,0.2177616
66.187776,2693415.252,189143.1298,-198.8890239,2853.02517,2700048.304,2859.949206,-4030233.333,7722000000,0.007335766274,0.2184096
70.795944,2692466.89,202288.0605,-212.7107195,2852.020647,2700055.261,2859.941891,-4030233.333,7722000000,0.007335766274,0.2383392
75.277224,2691483.566,215066.4537,-226.1469005,2850.979097,2700062.475,2859.934306,-4030233.333,7722000000,0.007335766274,0.225624
79.940904,2690396.294,228359.8493,-240.1244763,2849.827451,2700070.451,2859.925919,-4030233.333,7722000000,0.007335766274,0.2381664
84.254184,2689332.699,240649.5446,-253.0465801,2848.700891,2700078.253,2859.917715,-4030233.333,7722000000,0.007335766274,0.2127072
88.692528,2688180.094,253290.373,-266.3377654,2847.480057,2700086.708,2859.908824,-4030233.333,7722000000,0.007335766274,0.2159136
93.095664,2686978.354,265825.4352,-279.5176161,2846.207189,2700095.524,2859.899554,-4030233.333,7722000000,0.007335766274,0.2229168
97.610376,2685685.919,278672.1751,-293.0250391,2844.838267,2700105.005,2859.889585,-4030233.333,7722000000,0.007335766274,0.2285952
102.133176,2684330.038,291535.5864,-306.5498444,2843.402154,2700114.951,2859.879126,-4030233.333,7722000000,0.007335766274,0.2294304
106.603416,2682929.821,304242.9852,-319.9104648,2841.919094,2700125.223,2859.868326,-4030233.333,7722000000,0.007335766274,0.2268576
110.994144,2681496.384,316717.7682,-333.0263598,2840.400859,2700135.738,2859.857269,-4030233.333,7722000000,0.007335766274,0.2237616
115.397832,2680000.889,329222.5422,-346.1736295,2838.816908,2700146.709,2859.845733,-4030233.333,7722000000,0.007335766274,0.224256
119.876616,2678420.523,341933.2653,-359.5372615,2837.143079,2700158.302,2859.833543,-4030233.333,7722000000,0.007335766274,0.219888
124.378968,2676771.533,354703.1745,-372.9629423,2835.396584,2700170.399,2859.820824,-4030233.333,7722000000,0.007335766274,0.2206656
128.88408,2675061.049,367472.8969,-386.3882418,2833.584975,2700182.946,2859.80763,-4030233.333,7722000000,0.007335766274,0.2199792
133.463736,2673260.29,380445.3994,-400.0265355,2831.677773,2700196.156,2859.79374,-4030233.333,7722000000,0.007335766274,0.2278656
137.998704,2671415.578,393282.5619,-413.5223412,2829.724037,2700209.689,2859.779512,-4030233.333,7722000000,0.007335766274,0.2280384
142.666608,2669452.893,406486.6173,-427.4036473,2827.645379,2700224.086,2859.764373,-4030233.333,7722000000,0.007335766274,0.2324304
147.261484,2667457.653,419474.4679,-441.0574372,2825.532265,2700238.723,2859.748983,-4030233.333,7722000000,0.007335766274,0.221012
151.6756149,2665481.837,431942.1412,-454.1641645,2823.439745,2700253.217,2859.733743,-4030233.333,7722000000,0.007335766274,0.2433428571
156.4852491,2663263.153,445516.2323,-468.4337752,2821.090038,2700269.493,2859.71663,-4030233.333,7722000000,0.007335766274,0.2386388571
161.018496,2661109.163,458299.7837,-481.872098,2818.808873,2700285.294,2859.700016,-4030233.333,7722000000,0.007335766274,0.212372
165.608424,2658866.201,471232.4874,-495.4669668,2816.433511,2700301.748,2859.682716,-4030233.333,7722000000,0.007335766274,0.22328
170.0987472,2656611.555,483873.8469,-508.7553283,2814.045805,2700318.287,2859.665326,-4030233.333,7722000000,0.007335766274,0.2306976
174.7967088,2654188.809,497088.1264,-522.6456649,2811.480111,2700336.06,2859.64664,-4030233.333,7722000000,0.007335766274,0.2431824
179.4614448,2651718.662,510196.8641,-536.4247822,2808.864253,2700354.181,2859.627588,-4030233.333,7722000000,0.007335766274,0.2223504
183.9323184,2649290.875,522749.2172,-549.6187948,2806.29329,2700371.99,2859.608862,-4030233.333,7722000000,0.007335766274,0.2157312
188.3274816,2646846.729,535077.6684,-562.5771994,2803.705036,2700389.92,2859.590011,-4030233.333,7722000000,0.007335766274,0.2201808
192.8147232,2644292.65,547652.5256,-575.7943278,2801.000404,2700408.656,2859.570312,-4030233.333,7722000000,0.007335766274,0.2278416
197.2861056,2641688.633,560170.7278,-588.9516272,2798.242929,2700427.759,2859.550228,-4030233.333,7722000000,0.007335766274,0.2253648
201.7973712,2639001.799,572787.9511,-602.2127128,2795.397797,2700447.469,2859.529506,-4030233.333,7722000000,0.007335766274,0.2153136
206.3222784,2636246.775,585430.2905,-615.4998969,2792.480502,2700467.679,2859.508257,-4030233.333,7722000000,0.007335766274,0.2276592
210.7039824,2633521.673,597659.8134,-628.3529164,2789.594933,2700487.669,2859.48724,-4030233.333,7722000000,0.007335766274,0.2202672
215.0607168,2630756.292,609806.9803,-641.1190908,2786.666757,2700507.956,2859.465912,-4030233.333,7722000000,0.007335766274,0.2167824
219.4572,2627909.329,622051.9092,-653.9877094,2783.652243,2700528.84,2859.443955,-4030233.333,7722000000,0.007335766274,0.231528
223.9978512,2624909.653,634684.3163,-667.2632202,2780.476079,2700550.845,2859.420821,-4030233.333,7722000000,0.007335766274,0.2192976
228.5106144,2621868.711,647224.7049,-680.4416973,2777.256273,2700573.153,2859.397368,-4030233.333,7722000000,0.007335766274,0.2193312
233.0081424,2618778.899,659708.1594,-693.5600089,2773.984778,2700595.819,2859.373539,-4030233.333,7722000000,0.007335766274,0.2274672
237.4118016,2615696.444,671916.6789,-706.3890741,2770.721127,2700618.431,2859.349767,-4030233.333,7722000000,0.007335766274,0.2165088
241.8102,2612561.312,684096.1361,-719.1872685,2767.401758,2700641.43,2859.325588,-4030233.333,7722000000,0.007335766274,0.232464
246.3210576,2609287.588,696571.6975,-732.2962595,2763.935714,2700665.445,2859.300341,-4030233.333,7722000000,0.007335766274,0.2188608
250.8221664,2605962.036,709004.5723,-745.3600372,2760.414859,2700689.841,2859.274695,-4030233.333,7722000000,0.007335766274,0.2174304
255.2630304,2602623.405,721255.3732,-758.2321435,2756.880222,2700714.332,2859.248948,-4030233.333,7722000000,0.007335766274,0.2174544
259.6504896,2599268.825,733343.3033,-770.9327638,2753.328764,2700738.94,2859.223078,-4030233.333,7722000000,0.007335766274,0.2178576
264.2222256,2595714.106,745922.2175,-784.1488725,2749.565492,2700765.017,2859.195665,-4030233.333,7722000000,0.007335766274,0.2222496
268.6755408,2592193.412,758158.6227,-797.0047412,2745.838312,2700790.844,2859.168514,-4030233.333,7722000000,0.007335766274,0.2306448
273.1445184,2588602.822,770421.2417,-809.8877672,2742.03721,2700817.184,2859.140825,-4030233.333,7722000000,0.007335766274,0.2411664
277.7809344,2584816.898,783125.2013,-823.2340497,2738.029403,2700844.956,2859.11163,-4030233.333,7722000000,0.007335766274,0.2358384
282.3555408,2581020.844,795641.4409,-836.3827025,2734.010955,2700872.803,2859.082357,-4030233.333,7722000000,0.007335766274,0.2364048
286.9599696,2577139.349,808220.565,-849.5969908,2729.902146,2700901.277,2859.052426,-4030233.333,7722000000,0.007335766274,0.2201376
291.4125216,2573328.063,820366.6369,-862.3559476,2725.867741,2700929.236,2859.023036,-4030233.333,7722000000,0.007335766274,0.2210016
295.8887568,2569439.283,832559.0717,-875.1631916,2721.751392,2700957.763,2858.993049,-4030233.333,7722000000,0.007335766274,0.2292528
300.4317504,2565433.935,844914.3641,-888.1410735,2717.511745,2700987.145,2858.962163,-4030233.333,7722000000,0.007335766274,0.2239824
304.8856464,2561449.95,857008.5101,-900.8442213,2713.294802,2701016.371,2858.931443,-4030233.333,7722000000,0.007335766274,0.2195184
309.2952192,2557449.92,868963.6679,-913.4009585,2709.060967,2701045.714,2858.900599,-4030233.333,7722000000,0.007335766274,0.2194032
313.7245152,2553376.301,880953.3738,-925.9935524,2704.749336,2701075.597,2858.869188,-4030233.333,7722000000,0.007335766274,0.2261712
318.2329344,2549172.68,893137.5112,-938.7899061,2700.300208,2701106.434,2858.836775,-4030233.333,7722000000,0.007335766274,0.2328624
322.8211344,2544835.491,905516.5219,-951.7904541,2695.709818,2701138.251,2858.803332,-4030233.333,7722000000,0.007335766274,0.2183184
