t,x,y,vx,vy,r,v,energy,h,e,dt_eff
0,7000000,0,0,-7546,7000000,7546,-28467696.29,5.2822e+10,5.904088222e-05,0
30.403,6996240.986,-229379.97,-247.2570016,-7541.947783,7000000.222,7545.999761,-28467696.29,5.2822e+10,5.904088222e-05,1.52015
105.157,6955074.685,-791816.4282,-853.5273932,-7497.570529,7000002.652,7545.997141,-28467696.29,5.2822e+10,5.90408822e-05,3.7377
181.39,6866610.322,-1360063.58,-1466.060332,-7402.206089,7000007.875,7545.991511,-28467696.29,5.2822e+10,5.904088214e-05,3.81165
258.947,6729056.056,-1928737.554,-2079.051582,-7253.923096,7000015.997,7545.982757,-28467696.29,5.2822e+10,5.904088204e-05,3.87785
335.918,6546063.645,-2479803.615,-2673.060242,-7056.658483,7000026.801,7545.97111,-28467696.29,5.2822e+10,5.904088192e-05,3.84855
413.483,6316100.87,-3017852.73,-3253.034415,-6808.76099,7000040.378,7545.956475,-28467696.29,5.2822e+10,5.904088176e-05,3.87825
488.641,6051159.28,-3519127.115,-3793.364707,-6523.15789,7000056.02,7545.939614,-28467696.29,5.2822e+10,5.90408816e-05,3.7579
562.581,5751764.301,-3989766.809,-4300.669424,-6200.416083,7000073.697,7545.92056,-28467696.29,5.2822e+10,5.904088143e-05,3.697
637.25,5412362.76,-4439328.965,-4785.250017,-5834.549973,7000093.735,7545.89896,-28467696.29,5.2822e+10,5.904088123e-05,3.73345
709.753,5049249.69,-4848369.831,-5226.148128,-5443.125766,7000115.174,7545.875851,-28467696.29,5.2822e+10,5.904088104e-05,3.62515
783.935,4645842.243,-5236229.154,-5644.209711,-5008.268327,7000138.992,7545.850177,-28467696.29,5.2822e+10,5.904088081e-05,3.7091
856.178,4224419.973,-5581807.068,-6016.691927,-4553.994775,7000163.873,7545.823358,-28467696.29,5.2822e+10,5.904088059e-05,3.61215
929.9,3767992.506,-5899568.12,-6359.185619,-4061.990896,7000190.821,7545.79431,-28467696.29,5.2822e+10,5.904088034e-05,3.6861
1001.896,3299274.952,-6173964.995,-6654.933615,-3556.742917,7000218.494,7545.764481,-28467696.29,5.2822e+10,5.90408801e-05,3.5998
1078.81,2776671.217,-6426008.707,-6926.581686,-2993.413741,7000249.349,7545.731222,-28467696.29,5.2822e+10,5.904087975e-05,3.8457
1151.635,2264210.207,-6623991.749,-7139.956344,-2441.022515,7000279.605,7545.698609,-28467696.29,5.2822e+10,5.904087948e-05,3.64125
1224.569,1737007.587,-6781382.97,-7309.574785,-1872.746016,7000310.732,7545.665058,-28467696.29,5.2822e+10,5.90408792e-05,3.6467
1297.673,1197811.339,-6897104.033,-7434.275381,-1291.546705,7000342.566,7545.630744,-28467696.29,5.2822e+10,5.904087891e-05,3.6552
1370.675,651947.8774,-6969950.59,-7512.760904,-703.1661914,7000374.795,7545.596006,-28467696.29,5.2822e+10,5.904087862e-05,3.6501
1443.611,102547.7616,-6999656.089,-7544.744867,-110.9790264,7000407.232,7545.561043,-28467696.29,5.2822e+10,5.904087832e-05,3.6468
1517.428,-454119.6624,-6985695.162,-7529.661401,489.0358244,7000440.098,7545.525618,-28467696.29,5.2822e+10,5.904087801e-05,3.69085
1590.609,-1003164.567,-6928223.168,-7467.679564,1080.829075,7000472.514,7545.490677,-28467696.29,5.2822e+10,5.904087772e-05,3.65905
1665.952,-1561877.668,-6824046.85,-7355.357044,1683.037657,7000505.501,7545.455122,-28467696.29,5.2822e+10,5.904087738e-05,3.76715
1751.739,-2185300.765,-6650718.245,-7168.495639,2354.98717,7000542.308,7545.415449,-28467696.29,5.2822e+10,5.904087674e-05,4.28935
1836.676,-2784169.883,-6423121.182,-6923.144528,3000.464801,7000577.666,7545.377339,-28467696.29,5.2822e+10,5.904087616e-05,4.24685
1921.809,-3361018.459,-6141019.412,-6619.049665,3622.20192,7000611.724,7545.34063,-28467696.29,5.2822e+10,5.904087559e-05,4.25665
2007.612,-3913780.994,-5804424.155,-6256.223939,4217.973023,7000644.359,7545.305454,-28467696.29,5.2822e+10,5.904087503e-05,4.29015
2093.266,-4432224.273,-5418933.29,-5840.702029,4776.749557,7000674.969,7545.272462,-28467696.29,5.2822e+10,5.90408745e-05,4.2827
2179.71,-4917164.301,-4983106.072,-5370.931354,5299.41197,7000703.6,7545.241602,-28467696.29,5.2822e+10,5.9040874e-05,4.3222
2265.838,-5357916.82,-4505878.671,-4856.544237,5774.445918,7000729.622,7545.213555,-28467696.29,5.2822e+10,5.904087354e-05,4.3064
2350.605,-5746673.435,-3998284.763,-4309.433204,6193.436827,7000752.575,7545.188816,-28467696.29,5.2822e+10,5.904087317e-05,4.23835
2439.445,-6102615.321,-3430585.533,-3697.544248,6577.058537,7000773.59,7545.166165,-28467696.29,5.2822e+10,5.904087276e-05,4.442
2524.642,-6391482.84,-2856574.305,-3078.857547,6888.388148,7000790.645,7545.147783,-28467696.29,5.2822e+10,5.904087247e-05,4.25985
2611.872,-6631430.254,-2243969.874,-2418.578641,7146.992515,7000804.812,7545.132514,-28467696.29,5.2822e+10,5.904087222e-05,4.3615
2695.916,-6807232.816,-1634929.581,-1762.144826,7336.463825,7000815.191,7545.121327,-28467696.29,5.2822e+10,5.904087205e-05,4.2022
2780.069,-6927339.747,-1011670.233,-1090.38804,7465.908815,7000822.282,7545.113684,-28467696.29,5.2822e+10,5.904087195e-05,4.20765
2855.031,-6986392.022,-449319.4347,-484.2806258,7529.552183,7000825.769,7545.109926,-28467696.29,5.2822e+10,5.904087191e-05,3.7481
2920.2124,-7000699.593,42172.01495,45.45338073,7544.972104,7000826.614,7545.109016,-28467696.29,5.2822e+10,5.90408719e-05,3.8342
3002.7631,-6969262.231,664026.5388,715.6940238,7511.090621,7000824.757,7545.111016,-28467696.29,5.2822e+10,5.904087194e-05,4.1793
3085.81445,-6882001.276,1284341.695,1384.276529,7417.045405,7000819.606,7545.116569,-28467696.29,5.2822e+10,5.904087202e-05,4.14785
3167.7625,-6741884.957,1886358.01,2033.138233,7266.035199,7000811.333,7545.125485,-28467696.29,5.2822e+10,5.904087214e-05,4.0885
3249.2418,-6550459.763,2470359.886,2662.58643,7059.726334,7000800.031,7545.137667,-28467696.29,5.2822e+10,5.90408723e-05,4.0714
3330.60265,-6308938.436,3034517.627,3270.649738,6799.425316,7000785.771,7545.153036,-28467696.29,5.2822e+10,5.90408725e-05,4.06745
3412.00605,-6018771.794,3575632.48,3853.881074,6486.695125,7000768.64,7545.171501,-28467696.29,5.2822e+10,5.904087275e-05,4.07065
3495.67665,-5672295.345,4103113.53,4422.422571,6113.274433,7000748.183,7545.193549,-28467696.29,5.2822e+10,5.904087307e-05,4.20345
3577.75325,-5287611.331,4588172.135,4945.24504,5698.672353,7000725.471,7545.218029,-28467696.29,5.2822e+10,5.90408734e-05,4.08625
3660.137,-4859907.855,5038958.146,5431.132907,5237.701897,7000700.219,7545.245246,-28467696.29,5.2822e+10,5.904087377e-05,4.125
3742.20775,-4395750.831,5448558.938,5872.635319,4737.438755,7000672.815,7545.274783,-28467696.29,5.2822e+10,5.904087417e-05,4.09975
3824.3022,-3897072.578,5815654.129,6268.328905,4199.964663,7000643.373,7545.306517,-28467696.29,5.2822e+10,5.90408746e-05,4.1056
3907.15625,-3362877.239,6140001.85,6617.95279,3624.205334,7000611.833,7545.340511,-28467696.29,5.2822e+10,5.904087508e-05,4.14925
3991.27685,-2793120.505,6419234.604,6918.954868,3010.111978,7000578.194,7545.376769,-28467696.29,5.2822e+10,5.904087561e-05,4.21605
4075.2876,-2201204.944,6645472.335,7162.840359,2372.129216,7000543.247,7545.414437,-28467696.29,5.2822e+10,5.904087617e-05,4.1978
4158.90785,-1594122.498,6816588.398,7347.315889,1717.792554,7000507.405,7545.45307,-28467696.29,5.2822e+10,5.904087673e-05,4.17805
4242.51475,-974198.8117,6932353.724,7472.133565,1049.608198,7000470.804,7545.492521,-28467696.29,5.2822e+10,5.90408773e-05,4.18075
4325.98015,-347435.4251,6991806.776,7536.255699,374.0445729,7000433.799,7545.532407,-28467696.29,5.2822e+10,5.904087787e-05,4.17195
4409.83565,285079.1746,6994589.365,7539.295185,-307.7253001,7000396.455,7545.572659,-28467696.29,5.2822e+10,5.904087846e-05,4.19645
4493.383,912961.1071,6940571.556,7481.110339,-984.5089443,7000359.384,7545.612617,-28467696.29,5.2822e+10,5.904087904e-05,4.174
4577.6858,1539005.43,6829053.836,7360.946372,-1659.318995,7000322.422,7545.652458,-28467696.29,5.2822e+10,5.904087963e-05,4.2224
4660.9795,2145103.865,6663523.273,7182.559894,-2312.636263,7000286.637,7545.69103,-28467696.29,5.2822e+10,5.904088018e-05,4.1545
4746.2591,2747710.867,6438447.008,6939.987211,-2962.196715,7000251.059,7545.729379,-28467696.29,5.2822e+10,5.904088078e-05,4.2833
4829.6998,3314901.477,6165587.907,6645.904806,-3573.587261,7000217.571,7545.765475,-28467696.29,5.2822e+10,5.90408813e-05,4.1524
4915.0292,3867181.118,5835023.542,6289.61783,-4168.91048,7000184.964,7545.800623,-28467696.29,5.2822e+10,5.904088185e-05,4.2866
4999.8772,4383935.826,5457404.976,5882.605442,-4725.945044,7000154.455,7545.83351,-28467696.29,5.2822e+10,5.904088235e-05,4.2346
5085.41155,4867767.513,5030566.758,5422.533288,-5247.494715,7000125.889,7545.864301,-28467696.29,5.2822e+10,5.904088284e-05,4.28415
5169.24835,5301892.948,4570703.971,4926.857425,-5715.466815,7000100.258,7545.891929,-28467696.29,5.2822e+10,5.904088324e-05,4.17555
5253.29145,5693652.993,4072271.527,4389.601172,-6137.773443,7000077.128,7545.916862,-28467696.29,5.2822e+10,5.90408836e-05,4.20685
5337.3069,6038609.802,3540619.482,3816.531521,-6509.629771,7000056.761,7545.938815,-28467696.29,5.2822e+10,5.904088392e-05,4.1997
5421.55675,6334824.527,2978346.527,3210.449996,-6828.944863,7000039.273,7545.957667,-28467696.29,5.2822e+10,5.90408842e-05,4.21475
5505.69195,6578530.615,2392338.463,2578.779442,-7091.657618,7000024.884,7545.973177,-28467696.29,5.2822e+10,5.904088443e-05,4.20535
5589.67995,6767878.456,1787739.653,1927.065797,-7295.773466,7000013.705,7545.985227,-28467696.29,5.2822e+10,5.90408846e-05,4.19835
5674.29635,6902579.234,1163821.483,1254.52446,-7440.980501,7000005.752,7545.9938,-28467696.29,5.2822e+10,5.904088473e-05,4.23655
5759.89265,6980446.987,522853.732,563.6029546,-7524.921855,7000001.154,7545.998756,-28467696.29,5.2822e+10,5.90408848e-05,4.28745
5832.5588,6999955.368,-24997.61126,-26.94583401,-7545.951887,7000000.003,7545.999997,-28467696.29,5.2822e+10,5.904088482e-05,4.2717
5918.9378,6967307.655,-675759.6213,-728.425664,-7510.757662,7000001.93,7545.997919,-28467696.29,5.2822e+10,5.904088478e-05,4.3392
6005.5188,6874008.076,-1322163.799,-1425.206915,-7410.18085,7000007.439,7545.991982,-28467696.29,5.2822e+10,5.904088468e-05,4.3247
6090.582,6724067.095,-1946060.065,-2097.724016,-7248.545021,7000016.291,7545.982439,-28467696.29,5.2822e+10,5.904088453e-05,4.2225
6176.7995,6514447.435,-2561713.482,-2761.352792,-7022.576478,7000028.667,7545.969098,-28467696.29,5.2822e+10,5.904088431e-05,4.34875
6262.833,6249224.209,-3154016.069,-3399.807065,-6736.668822,7000044.326,7545.952219,-28467696.29,5.2822e+10,5.904088403e-05,4.2815
6348.1851,5933021.332,-3714853.942,-4004.340092,-6395.807347,7000062.995,7545.932095,-28467696.29,5.2822e+10,5.904088371e-05,4.26165
6433.2844,5567787.014,-4242750.475,-4573.359748,-6002.093052,7000084.559,7545.908851,-28467696.29,5.2822e+10,5.904088335e-05,4.2521
6517.9351,5158022.276,-4732475.963,-5101.22865,-5560.378862,7000108.752,7545.882773,-28467696.29,5.2822e+10,5.904088295e-05,4.22415
6603.7432,4698870.37,-5188691.483,-5592.970647,-5065.430404,7000135.861,7545.853552,-28467696.29,5.2822e+10,5.904088247e-05,4.3188
6694.1428,4171776.429,-5621264.91,-6059.221284,-4497.247716,7000166.981,7545.820007,-28467696.29,5.2822e+10,5.90408818e-05,4.6062
6790.0951,3569121.982,-6021976.767,-6491.119866,-3847.620518,7000202.562,7545.781654,-28467696.29,5.2822e+10,5.904088082e-05,4.87965
6886.0991,2927966.292,-6358488.758,-6853.810817,-3156.498421,7000240.416,7545.740851,-28467696.29,5.2822e+10,5.904087979e-05,4.76615
6981.091,2262711.444,-6624503.96,-7140.508362,-2439.406977,7000279.694,7545.698514,-28467696.29,5.2822e+10,5.904087877e-05,4.7425
7081.1203,1536694.682,-6829574.319,-7361.507249,-1656.828239,7000322.558,7545.652311,-28467696.29,5.2822e+10,5.904087738e-05,5.11245
7178.813,810345.5396,-6953305.432,-7494.829456,-873.9008159,7000365.443,7545.606086,-28467696.29,5.2822e+10,5.904087613e-05,4.787
7276.037,78555.64182,-6999967.875,-7545.079406,-85.11853549,7000408.648,7545.559516,-28467696.29,5.2822e+10,5.904087489e-05,4.893
7375.6358,-671934.8211,-6968130.683,-7510.715403,723.8106122,7000452.958,7545.511756,-28467696.29,5.2822e+10,5.90408735e-05,5.0172
7470.1166,-1376846.07,-6863761.302,-7398.175149,1483.602088,7000494.576,7545.466897,-28467696.29,5.2822e+10,5.904087242e-05,4.5984
7560.7966,-2040073.691,-6696683.649,-7218.048422,2198.456447,7000533.734,7545.424691,-28467696.29,5.2822e+10,5.904087158e-05,4.5064
7653.8926,-2700656.254,-6458674.355,-6961.470327,2910.451902,7000572.735,7545.382653,-28467696.29,5.2822e+10,5.904087065e-05,4.7184
7745.2835,-3322751.193,-6161806.341,-6641.456837,3580.957002,7000609.464,7545.343065,-28467696.29,5.2822e+10,5.904086983e-05,4.50575
7831.335,-3879158.127,-5827617.442,-6281.224359,4180.656431,7000642.315,7545.307657,-28467696.29,5.2822e+10,5.904086925e-05,4.2155
7915.8326,-4393096.806,-5450698.866,-5874.941935,4734.578266,7000672.658,7545.274952,-28467696.29,5.2822e+10,5.904086876e-05,4.2289
7999.9689,-4868664.763,-5030498.407,-5422.014359,5247.139955,7000700.736,7545.244689,-28467696.29,5.2822e+10,5.904086831e-05,4.19735
8084.7531,-5307412.776,-4565253.894,-4920.542373,5720.013884,7000726.64,7545.216769,-28467696.29,5.2822e+10,5.904086789e-05,4.25715
8169.7057,-5702609.848,-4060879.352,-4376.900561,6145.946474,7000749.973,7545.19162,-28467696.29,5.2822e+10,5.90408675e-05,4.24355
8255.3677,-6052723.986,-3517857.582,-3791.609162,6523.28754,7000770.644,7545.16934,-28467696.29,5.2822e+10,5.904086715e-05,4.30005
8340.3887,-6349245.105,-2949257.76,-3178.754262,6842.866137,7000788.151,7545.150471,-28467696.29,5.2822e+10,5.904086686e-05,4.23005
8425.3607,-6592365.276,-2356258.852,-2539.605935,7104.890137,7000802.505,7545.135,-28467696.29,5.2822e+10,5.904086663e-05,4.25655
8510.7934,-6781097.847,-1740144.741,-1875.547279,7308.296884,7000813.648,7545.12299,-28467696.29,5.2822e+10,5.904086644e-05,4.2781
8595.6106,-6911641.434,-1113872.677,-1200.542989,7448.990006,7000821.355,7545.114683,-28467696.29,5.2822e+10,5.904086632e-05,4.2249
8680.3235,-6984413.953,-479084.0728,-516.3612355,7527.420327,7000825.652,7545.110052,-28467696.29,5.2822e+10,5.904086625e-05,4.24025
8748.8645,-7000725.158,37690.32347,40.62297293,7544.999656,7000826.615,7545.109014,-28467696.29,5.2822e+10,5.904086624e-05,4.30995
8834.0185,-6967807.843,679117.0345,731.9587104,7509.52316,7000824.672,7545.111109,-28467696.29,5.2822e+10,5.904086627e-05,4.20545
8918.0445,-6877835.075,1306467.137,1408.123605,7412.555292,7000819.36,7545.116834,-28467696.29,5.2822e+10,5.904086636e-05,4.19715
9002.133,-6731363.564,1923563.151,2073.238543,7254.695765,7000810.712,7545.126155,-28467696.29,5.2822e+10,5.90408665e-05,4.2117
9086.506,-6528866.54,2526872.558,2723.497029,7036.454155,7000798.756,7545.139041,-28467696.29,5.2822e+10,5.90408667e-05,4.2256
9171.343,-6270861.604,3112437.097,3354.633618,6758.387692,7000783.523,7545.155459,-28467696.29,5.2822e+10,5.904086696e-05,4.2581
9256.4365,-5959449.721,3673645.536,3959.523292,6422.75994,7000765.137,7545.175276,-28467696.29,5.2822e+10,5.904086727e-05,4.25125
9341.8615,-5596443.916,4205975.264,4533.292024,6031.524016,7000743.705,7545.198376,-28467696.29,5.2822e+10,5.904086763e-05,4.29125
9426.935,-5187811.685,4700711.068,5066.546541,5591.110541,7000719.579,7545.224379,-28467696.29,5.2822e+10,5.904086804e-05,4.2161
9511.494,-4738451.984,5153326.688,5554.408275,5106.798525,7000693.048,7545.252975,-28467696.29,5.2822e+10,5.904086847e-05,4.2398
9597.313,-4242201.885,5568933.121,6002.38633,4571.944592,7000663.749,7545.284554,-28467696.29,5.2822e+10,5.904086898e-05,4.3421
9682.7055,-3712411.484,5935221.643,6397.213194,4000.936281,7000632.47,7545.318268,-28467696.29,5.2822e+10,5.904086952e-05,4.19715
9767.7815,-3153327.884,6250193.283,6736.733667,3398.350213,7000599.461,7545.353846,-28467696.29,5.2822e+10,5.904087007e-05,4.31045
9852.69,-2568924.109,6512183.862,7019.153249,2768.467727,7000564.958,7545.391036,-28467696.29,5.2822e+10,5.904087065e-05,4.1804
9936.745,-1969200.341,6717861.564,7240.879453,2122.066579,7000529.549,7545.429201,-28467696.29,5.2822e+10,5.904087121e-05,4.2251
10021.0605,-1351395.737,6868815.971,7403.624964,1456.170499,7000493.074,7545.468517,-28467696.29,5.2822e+10,5.90408718e-05,4.20645
10105.5285,-721292.8921,6963197.468,7505.394931,777.0117053,7000455.872,7545.508615,-28467696.29,5.2822e+10,5.90408724e-05,4.24035
10189.9835,-85313.35045,6999898.451,7544.994149,91.51137074,7000418.323,7545.549088,-28467696.29,5.2822e+10,5.904087301e-05,4.20515
10274.5365,552109.8242,6978574.678,7522.05029,-595.5523847,7000380.689,7545.589653,-28467696.29,5.2822e+10,5.904087363e-05,4.25015
10359.016,1184403.66,6899419.91,7436.770786,-1277.094642,7000343.358,7545.629891,-28467696.29,5.2822e+10,5.904087423e-05,4.1978
10443.771,1808891.665,6762558.825,7289.288875,-1950.23022,7000306.488,7545.669633,-28467696.29,5.2822e+10,5.904087484e-05,4.2777
10528.5675,2418586.757,6569187.548,7080.892482,-2607.427358,7000270.491,7545.708434,-28467696.29,5.2822e+10,5.904087543e-05,4.20195
10614.801,3017877.171,6316305.008,6808.346143,-3253.415764,7000235.108,7545.746573,-28467696.29,5.2822e+10,5.904087606e-05,4.4214
10708.2465,3637714.73,5980786.8,6446.724718,-3921.559264,7000198.512,7545.786019,-28467696.29,5.2822e+10,5.904087697e-05,4.92315
10807.177,4253619.821,5559585.284,5992.740294,-4585.470745,7000162.149,7545.825216,-28467696.29,5.2822e+10,5.904087807e-05,4.9699
10905.515,4817955.623,5078297.672,5473.980951,-5193.799453,7000128.83,7545.861131,-28467696.29,5.2822e+10,5.904087907e-05,4.8639
11001.8725,5318500.951,4551366.555,4906.013908,-5733.369733,7000099.277,7545.892986,-28467696.29,5.2822e+10,5.904087987e-05,4.77185
11098.748,5763937.563,3972158.792,4281.689742,-6213.538584,7000072.978,7545.921335,-28467696.29,5.2822e+10,5.904088061e-05,4.9157
11197.231,6152370.441,3339017.608,3599.222746,-6632.261868,7000050.045,7545.946055,-28467696.29,5.2822e+10,5.904088129e-05,4.9326
11295.106,6469780.88,2672521.961,2880.795705,-6974.426345,7000031.305,7545.966256,-28467696.29,5.2822e+10,5.904088183e-05,4.8549
11389.881,6708598.925,1998734.931,2154.503757,-7231.870413,7000017.205,7545.981455,-28467696.29,5.2822e+10,5.904088219e-05,4.6226
11478.203,6868219.338,1351914.216,1457.275866,-7403.940605,7000007.78,7545.991613,-28467696.29,5.2822e+10,5.904088238e-05,4.2096
11562.6295,6962658.428,722093.1234,778.3701862,-7505.745798,7000002.205,7545.997623,-28467696.29,5.2822e+10,5.904088246e-05,4.23305
11646.83,6999446.861,88000.58275,94.85902718,-7545.403716,7000000.033,7545.999965,-28467696.29,5.2822e+10,5.90408825e-05,4.187
11663.578,6999894.804,-38377.315,-41.36830313,-7545.886599,7000000.006,7545.999993,-28467696.29,5.2822e+10,5.904088249e-05,4.187
11748.9497,6966747.45,-681511.1588,-734.6254502,-7510.153761,7000001.963,7545.997884,-28467696.29,5.2822e+10,5.904088246e-05,4.30355
11833.6767,6875554.251,-1314099.162,-1416.513778,-7411.847623,7000007.347,7545.99208,-28467696.29,5.2822e+10,5.904088236e-05,4.20755
11917.841,6728220.045,-1931652.057,-2082.19321,-7253.02188,7000016.046,7545.982703,-28467696.29,5.2822e+10,5.904088222e-05,4.2085
12001.8808,6525882.216,-2532440.166,-2729.798412,-7034.903073,7000027.992,7545.969826,-28467696.29,5.2822e+10,5.904088203e-05,4.1992
12087.3656,6265168.452,-3122222.232,-3365.536002,-6753.8565,7000043.385,7545.953234,-28467696.29,5.2822e+10,5.904088176e-05,4.3064
12172.7306,5951767.872,-3684742.276,-3971.882552,-6416.015757,7000061.889,7545.933288,-28467696.29,5.2822e+10,5.904088144e-05,4.2519
12258.0248,5588327.431,-4215656.933,-4544.155774,-6024.23509,7000083.346,7545.910158,-28467696.29,5.2822e+10,5.904088108e-05,4.2702
12343.8691,5174885.125,-4714029.332,-5081.345387,-5578.556451,7000107.756,7545.883846,-28467696.29,5.2822e+10,5.904088065e-05,4.30165
12430.7729,4711253.186,-5177449.686,-5580.853523,-5078.778562,7000135.13,7545.85434,-28467696.29,5.2822e+10,5.904088015e-05,4.36385
12517.8609,4205197.518,-5596304.492,-6032.317884,-4533.273942,7000165.008,7545.822134,-28467696.29,5.2822e+10,5.90408796e-05,4.35035
12604.1189,3667446.837,-5962599.126,-6427.12173,-3953.608665,7000196.757,7545.787912,-28467696.29,5.2822e+10,5.904087904e-05,4.29685
12689.6065,3103225.008,-6274808.01,-6763.621392,-3345.41462,7000230.069,7545.752004,-28467696.29,5.2822e+10,5.904087847e-05,4.26475
