t,x,y,vx,vy,r,v,energy,h,e,dt_eff
0,28000000,0,0,14600,28000000,14600,-100337835.7,4.088e+11,0.03016735732,0
4.789416,27999919.48,69925.41327,-35.39337287,14599.95802,28000006.79,14600.00092,-100337772.1,4.088001237e+11,0.03016782508,0.236304
9.1094784,27999701.08,132997.9351,-67.31806432,14599.84414,28000016.95,14599.99933,-100337720.2,4.088002249e+11,0.03016820738,0.2005776
13.2055104,27999366.46,192799.0465,-97.58686588,14599.66965,28000030.24,14599.99579,-100337673.6,4.088003155e+11,0.03016854972,0.2016336001
17.3081952,27998907.01,252696.4445,-127.9043547,14599.43008,28000047.31,14599.99035,-100337627,4.088004063e+11,0.03016889307,0.2020368
21.3810672,27998327.85,312157.4919,-158.0009211,14599.12809,28000067.94,14599.98306,-100337581,4.088004958e+11,0.03016923139,0.2029727999
25.6737936,27997584.92,374826.79,-189.7212843,14598.74071,28000093.86,14599.97344,-100337529.8,4.088005954e+11,0.0301696078,0.2130623999
29.8205376,27996737.84,435363.1833,-220.3619779,14598.29902,28000122.69,14599.96212,-100337482.1,4.088006882e+11,0.0301699585,0.2063183999
33.9358608,27995771.54,495438.9394,-250.7694191,14597.79517,28000155.07,14599.94894,-100337435.2,4.088007796e+11,0.03017030384,0.2027232
38.0654976,27994676.1,555721.4337,-281.2813892,14597.22399,28000191.36,14599.93381,-100337387.9,4.088008716e+11,0.03017065163,0.2031983999
42.1902528,27993456.18,615930.1854,-311.7559102,14596.58789,28000231.41,14599.91678,-100337340.7,4.088009634e+11,0.03017099856,0.2052672
46.3837776,27992087.11,677139.9404,-342.7369465,14595.87403,28000276.06,14599.89751,-100337292,4.088010583e+11,0.03017135721,0.2042303999
50.5732032,27990589.65,738286.7386,-373.6859632,14595.09323,28000324.58,14599.87629,-100337243.3,4.088011531e+11,0.03017171535,0.2043887999
54.6744048,27988998.07,798142.5638,-403.9814015,14594.26336,28000375.8,14599.85356,-100337196.7,4.088012438e+11,0.03017205823,0.2025552001
58.950936,27987206.29,860553.5143,-435.5699081,14593.3291,28000433.36,14599.82792,-100337145.6,4.088013432e+11,0.03017243359,0.2487779999
63.488244,27985157.78,926765.6721,-469.0821269,14592.26098,28000499.12,14599.79858,-100337088.1,4.088014552e+11,0.03017285684,0.2485500001
68.219772,27982859.8,995806.7054,-504.0258752,14591.06279,28000572.73,14599.7656,-100337025.6,4.088015767e+11,0.03017331589,0.245388
72.4119792,27980685.19,1056973.23,-534.9838598,14589.92893,28000641.7,14599.73404,-100336976.7,4.08801672e+11,0.03017367586,0.2013215999
76.4970384,27978441.21,1116571.705,-565.1479873,14588.75892,28000712.58,14599.70133,-100336930.4,4.08801762e+11,0.03017401597,0.2002032
80.6229264,27976049.78,1176760.869,-595.6108375,14587.51202,28000787.97,14599.66641,-100336883.2,4.088018539e+11,0.03017436287,0.2043792
84.7410624,27973537.5,1236831.688,-626.0135393,14586.20212,28000867,14599.62963,-100336836.2,4.088019454e+11,0.03017470839,0.2044032
88.9029264,27970871.38,1297534.752,-656.7359623,14584.81202,28000950.74,14599.59054,-100336788.2,4.088020388e+11,0.03017506123,0.2079072
93.0884304,27968061.19,1358576.652,-687.6295889,14583.34681,28001038.86,14599.54926,-100336739.6,4.088021334e+11,0.03017541815,0.2168112
97.21764,27965162.05,1418791.405,-718.1043004,14581.83523,28001129.58,14599.50658,-100336692.3,4.088022254e+11,0.03017576573,0.2015279999
101.2759488,27962190.03,1477966.03,-748.0523077,14580.28566,28001222.38,14599.46274,-100336646.7,4.088023143e+11,0.03017610116,0.2013744
105.69033,27958819.58,1542325.313,-780.6239026,14578.52837,28001327.82,14599.41311,-100336592.2,4.088024203e+11,0.03017650136,0.2463419999
110.409996,27955057.26,1611126.736,-815.4432045,14576.56678,28001445.6,14599.35775,-100336530.1,4.088025413e+11,0.03017695774,0.2460540001
115.148268,27951114.83,1680189.883,-850.3945102,14574.5113,28001568.85,14599.29966,-100336467.4,4.088026632e+11,0.030177418,0.2469239999
119.3205072,27947505.81,1740994.526,-881.165982,14572.62967,28001681.08,14599.24618,-100336418.9,4.088027577e+11,0.03017777434,0.2004816
123.3812352,27943869.88,1800166.376,-911.1107834,14570.73403,28001793.92,14599.1922,-100336373.2,4.088028466e+11,0.03017810987,0.2014656
127.53,27940029.61,1860613.002,-941.7003239,14568.73186,28001913.07,14599.13517,-100336325.5,4.088029395e+11,0.03017846009,0.204408
131.6694384,27936071.5,1920915.336,-972.2164484,14566.66828,28002035.76,14599.07632,-100336278,4.08803032e+11,0.03017880876,0.2043792
135.7996416,27931996.32,1981074.49,-1002.659711,14564.54368,28002161.96,14599.01569,-100336230.7,4.08803124e+11,0.03017915577,0.2050848
140.3016384,27927411.41,2046638.937,-1035.83782,14562.15335,28002304.17,14598.94757,-100336174.3,4.088032337e+11,0.03017956921,0.2123951999
144.5278656,27922971.21,2108177.283,-1066.978101,14559.83849,28002441.55,14598.88143,-100336124.8,4.0880333e+11,0.03017993241,0.2145888
148.7073744,27918450.65,2169025.601,-1097.768749,14557.48176,28002581.28,14598.81404,-100336076.3,4.088034245e+11,0.03018028831,0.2365392001
153.3769248,27913248.27,2236996.513,-1132.163041,14554.7696,28002742.41,14598.73663,-100336015.9,4.088035421e+11,0.0301807315,0.2355984001
158.0102304,27907927.52,2304427.136,-1166.283341,14551.99576,28002907.04,14598.65738,-100335956.4,4.088036579e+11,0.0301811678,0.2268911999
162.7184064,27902358.93,2372934.034,-1200.947618,14549.09275,28003079.29,14598.57442,-100335895,4.088037775e+11,0.03018161839,0.2280432
167.1928896,27896915.31,2438027.703,-1233.884208,14546.25493,28003247.36,14598.49316,-100335839.5,4.088038856e+11,0.03018202521,0.2142048001
171.321528,27891761.46,2498078.683,-1264.268726,14543.56819,28003406.12,14598.41605,-100335792.2,4.088039776e+11,0.03018237154,0.213456
175.42152,27886519.21,2557701.896,-1294.436285,14540.83541,28003567.5,14598.33757,-100335745.6,4.088040683e+11,0.03018271291,0.2012399998
179.4855168,27881200.91,2616790.474,-1324.332813,14538.06302,28003731.12,14598.2579,-100335699.9,4.088041573e+11,0.03018304812,0.2017343999
183.5661984,27875738.56,2676110.183,-1354.345749,14535.21556,28003899.12,14598.17604,-100335653.7,4.088042471e+11,0.03018338606,0.2018112
187.643808,27870157.99,2735373.505,-1384.32961,14532.30651,28004070.68,14598.09237,-100335607.7,4.088043368e+11,0.03018372342,0.2009520001
191.7793152,27864373.36,2795466.062,-1414.732447,14529.29112,28004248.48,14598.00563,-100335560.3,4.088044291e+11,0.03018407032,0.2052576001
195.9579504,27858400.75,2856172.513,-1445.445277,14526.17779,28004432.03,14597.91606,-100335511.9,4.088045232e+11,0.0301844244,0.2063952
200.1212496,27852322.42,2916643.095,-1476.038166,14523.00939,28004618.75,14597.82486,-100335463.9,4.088046167e+11,0.03018477582,0.2059968001
204.297736,27846096.9,2977291.832,-1506.720564,14519.76431,28004809.93,14597.73142,-100335415.5,4.088047109e+11,0.03018512988,0.2142799999
208.759536,27839304.79,3042068.644,-1539.490666,14516.22394,28005018.71,14597.62957,-100335360,4.08804819e+11,0.03018553595,0.2488080001
212.9030592,27832866,3102210.374,-1569.915249,14512.86779,28005216.29,14597.53286,-100335312.2,4.08804912e+11,0.03018588529,0.2041583999
217.0260432,27826333.99,3162040.05,-1600.181322,14509.4631,28005416.63,14597.4347,-100335265.1,4.088050037e+11,0.03018622976,0.2046383999
221.1015024,27819754.62,3221166.158,-1630.090834,14506.03377,28005618.34,14597.33577,-100335219.1,4.088050933e+11,0.03018656604,0.2051808
225.2218224,27812978.95,3280928.769,-1660.321662,14502.50217,28005826.03,14597.23389,-100335172.1,4.088051848e+11,0.03018690965,0.2051568
229.3382208,27806085.37,3340619.843,-1690.515622,14498.90917,28006037.29,14597.1302,-100335125.1,4.088052762e+11,0.03018725258,0.2083056
233.5861728,27798841.28,3402202.919,-1721.665903,14495.13354,28006259.33,14597.02127,-100335075.1,4.088053735e+11,0.03018761785,0.2062415999
237.697176,27791704.66,3461785.219,-1751.803424,14491.41398,28006477.91,14596.91387,-100335028.3,4.088054647e+11,0.03018795966,0.2009039999
241.762272,27784525.88,3520687.004,-1781.59603,14487.67251,28006697.69,14596.80579,-100334982.6,4.088055538e+11,0.03018829373,0.200568
245.8563408,27777173.57,3579993.103,-1811.592419,14483.84065,28006922.75,14596.69508,-100334936.2,4.088056441e+11,0.03018863248,0.2055696
249.95664,27769687,3639373.606,-1841.625708,14479.93889,28007151.88,14596.58233,-100334889.6,4.088057348e+11,0.03018897223,0.201024
254.0198976,27762146.57,3698201.764,-1871.378897,14476.00912,28007382.57,14596.46872,-100334843.9,4.088058238e+11,0.03018930573,0.2008992
258.0964992,27754459.92,3757206.951,-1901.220871,14472.00321,28007617.7,14596.3529,-100334797.9,4.088059134e+11,0.03018964134,0.2008464
262.2708,27746463.08,3817609.205,-1931.768627,14467.83572,28007862.35,14596.23241,-100334749.6,4.088060074e+11,0.03018999336,0.200616
266.3716032,27738482.84,3876930.874,-1961.769098,14463.67695,28008106.38,14596.11212,-100334703,4.088060981e+11,0.03019033286,0.2031503999
270.5379792,27730249.07,3937183.522,-1992.239576,14459.38614,28008358.17,14595.98801,-100334654.9,4.088061918e+11,0.03019068323,0.2065104
274.664544,27721968.82,3996842.68,-2022.409097,14455.07118,28008611.3,14595.86316,-100334607.8,4.088062836e+11,0.03019102662,0.2034480001
278.8255776,27713493.4,4056982.011,-2052.820602,14450.65459,28008870.37,14595.73535,-100334559.8,4.088063769e+11,0.03019137569,0.2062031999
282.9858,27704893.14,4117091.114,-2083.215966,14446.17303,28009133.21,14595.60564,-100334511.9,4.088064702e+11,0.03019172442,0.207792
287.0884464,27696288.05,4176349.938,-2113.180519,14441.68904,28009396.11,14595.47582,-100334465.3,4.088065609e+11,0.03019206349,0.2043888001
291.2375328,27687460.57,4236260.711,-2143.473864,14437.08926,28009665.79,14595.34263,-100334417.7,4.088066537e+11,0.03019241013,0.2065056
295.375008,27678532.65,4295984.689,-2173.671875,14432.43722,28009938.49,14595.2079,-100334370.3,4.08806746e+11,0.0301927547,0.206976
299.575272,27669341.51,4356595.205,-2204.317228,14427.64813,28010219.24,14595.0692,-100334321.4,4.088068411e+11,0.03019310996,0.2040720001
303.7009824,27660188.17,4416110.178,-2234.407752,14422.87882,28010498.72,14594.93102,-100334274.3,4.088069329e+11,0.03019345234,0.2039567999
307.8685872,27650815.89,4476209.394,-2264.792739,14417.99554,28010784.89,14594.78953,-100334226.2,4.088070266e+11,0.03019380216,0.2015664001
312.0216624,27641350.32,4536078.708,-2295.060552,14413.06375,28011073.84,14594.64661,-100334178.5,4.088071196e+11,0.03019414889,0.2092608002
316.196784,27631707.84,4596245.061,-2325.47758,14408.03989,28011368.17,14594.501,-100334130.2,4.088072136e+11,0.03019449917,0.205176
320.4264144,27621810.04,4657175.408,-2356.279852,14402.88311,28011670.3,14594.35153,-100334080.7,4.0880731e+11,0.03019485856,0.2126688001
324.7356336,27611592.11,4719229.718,-2387.649283,14397.55966,28011982.22,14594.19725,-100334029.3,4.088074101e+11,0.03019523152,0.2083632
328.9347168,27601505.22,4779675.811,-2418.204712,14392.3046,28012290,14594.04487,-100333980.5,4.088075052e+11,0.03019558539,0.2117616
333.1040544,27591362.84,4839671.746,-2448.531574,14387.02075,28012599.42,14593.89163,-100333932.4,4.088075988e+11,0.03019593406,0.2043648001
337.2175584,27581232.36,4898842.524,-2478.440334,14381.74321,28012908.39,14593.73853,-100333885.6,4.0880769e+11,0.03019627329,0.2043407999
341.3574864,27570912.62,4958371.356,-2508.529063,14376.36719,28013223.11,14593.58255,-100333838.2,4.088077824e+11,0.03019661678,0.2129568
345.4992624,27560463.65,5017904.362,-2538.618871,14370.92398,28013541.74,14593.42461,-100333790.7,4.088078748e+11,0.03019696042,0.2038607999
349.7196192,27549688.34,5078543.56,-2569.26671,14365.31089,28013870.35,14593.26175,-100333741.4,4.088079708e+11,0.03019731718,0.2078303999
353.838768,27539046.64,5137705.589,-2599.166911,14359.76754,28014194.77,14593.10085,-100333694.5,4.088080622e+11,0.03019765686,0.203208
358.0182768,27528123.19,5197711.092,-2629.49232,14354.07755,28014527.78,14592.93569,-100333646.1,4.088081564e+11,0.03019800656,0.2073455999
362.1390048,27517229.27,5256849.256,-2659.37832,14348.40307,28014859.82,14592.77094,-100333599.2,4.088082479e+11,0.03019834611,0.2080176001
366.2459088,27506249.37,5315765.635,-2689.151163,14342.68395,28015194.43,14592.60487,-100333552.5,4.088083387e+11,0.03019868321,0.2051616
370.370712,27495098.59,5374915.026,-2719.040665,14336.87596,28015534.22,14592.4362,-100333505.5,4.088084304e+11,0.03019902308,0.2070959999
374.4851136,27483853.12,5433891.266,-2748.841568,14331.01879,28015876.86,14592.26608,-100333458.7,4.088085216e+11,0.0301993611,0.2026271999
378.8777904,27471711.99,5496829.635,-2780.643322,14324.69528,28016247,14592.08252,-100333405.2,4.088086258e+11,0.03019974744,0.2153087999
383.113008,27459873.71,5557485.457,-2811.290525,14318.52966,28016607.73,14591.90345,-100333355.6,4.088087225e+11,0.0302001053,0.2055359999
387.3734448,27447834.02,5618475.983,-2842.105627,14312.25931,28016974.58,14591.72132,-100333305.3,4.088088203e+11,0.03020046752,0.2073696001
391.5251136,27435975.34,5677883.587,-2872.11978,14306.0834,28017335.8,14591.54187,-100333257.7,4.088089131e+11,0.03020081107,0.2067312001
395.7652512,27423735.45,5738530.536,-2902.758861,14299.70911,28017708.67,14591.35668,-100333207.9,4.088090101e+11,0.03020116968,0.2138544
399.9509424,27411525.29,5798372.083,-2932.989826,14293.35048,28018080.55,14591.17189,-100333159.5,4.088091045e+11,0.03020151846,0.2084928001
404.1940848,27399018.46,5859007.702,-2963.620692,14286.83752,28018461.48,14590.98263,-100333109.7,4.088092014e+11,0.03020187682,0.2107296
408.4535952,27386332.7,5919849.293,-2994.354327,14280.23157,28018847.84,14590.79064,-100333059.5,4.088092992e+11,0.03020223773,0.2123423999
412.7216688,27373490.17,5980784.84,-3025.134122,14273.54417,28019238.95,14590.59627,-100333009.2,4.088093973e+11,0.0302026,0.2067936001
416.8988784,27360793.8,6040395.331,-3055.243331,14266.93306,28019625.5,14590.40407,-100332960.9,4.088094913e+11,0.03020294666,0.2090208001
421.0762224,27347971.28,6099979.993,-3085.338223,14260.25645,28020015.86,14590.20993,-100332912.7,4.088095852e+11,0.03020329317,0.2038847999
425.2193376,27335129.65,6159048.742,-3115.171271,14253.57007,28020406.75,14590.01549,-100332865.3,4.088096777e+11,0.03020363385,0.2044032
429.328392,27322271.52,6217604.391,-3144.743915,14246.87529,28020798.09,14589.82076,-100332818.6,4.088097686e+11,0.03020396876,0.202776
433.4650944,27309204.18,6276526.129,-3174.50017,14240.07177,28021195.78,14589.62286,-100332771.3,4.088098607e+11,0.03020430808,0.2037408
437.5759488,27296096.55,6335051.686,-3204.055066,14233.24747,28021594.65,14589.42434,-100332724.7,4.088099517e+11,0.03020464292,0.2061216
441.7582272,27282636.6,6394565.192,-3234.107546,14226.23994,28022004.28,14589.22049,-100332676.3,4.088100459e+11,0.03020498962,0.2054304
446.0920128,27268556.61,6456203.607,-3265.231619,14218.90982,28022432.89,14589.0073,-100332624.1,4.088101476e+11,0.03020536348,0.2088816001
450.2009952,27255082.27,6514615.188,-3294.724965,14211.89521,28022842.83,14588.80318,-100332577.5,4.088102385e+11,0.03020569744,0.2071104
454.3387104,27241391.29,6573405.977,-3324.408446,14204.76804,28023259.36,14588.59577,-100332530.2,4.088103307e+11,0.03020603589,0.2024688001
458.5591152,27227300.27,6633341.167,-3354.668341,14197.43284,28023688.11,14588.38232,-100332481,4.088104266e+11,0.0302063879,0.2173824
462.9905376,27212367.47,6696239.654,-3386.422808,14189.65968,28024142.61,14588.1562,-100332426.7,4.088105323e+11,0.03020677576,0.2179872001
467.4597264,27197164.96,6759639.151,-3418.42861,14181.74639,28024605.32,14587.92599,-100332371.6,4.088106398e+11,0.03020716992,0.2174208001
471.8249808,27182177.86,6821529.933,-3449.671203,14173.94548,28025061.36,14587.69899,-100332318.9,4.088107424e+11,0.03020754581,0.2204015999
476.1913968,27167050.39,6883402.972,-3480.903278,14166.07176,28025521.64,14587.46985,-100332266.2,4.088108452e+11,0.03020792227,0.2120016001
480.4700304,27152094.71,6943998.607,-3511.489018,14158.28771,28025976.59,14587.24326,-100332215.6,4.088109437e+11,0.03020828281,0.2134608
484.7495808,27137004.96,7004573.774,-3542.062899,14150.43414,28026435.59,14587.01463,-100332165.1,4.088110423e+11,0.03020864356,0.2058096001
488.912496,27122200.88,7063465.618,-3571.785686,14142.72949,28026885.79,14586.79027,-100332117.2,4.088111355e+11,0.0302089844,0.2061599999
493.0872576,27107230.44,7122492.715,-3601.575259,14134.93852,28027341.02,14586.56338,-100332069.1,4.088112293e+11,0.03020932702,0.2030111999
497.1757632,27092448.76,7180268.572,-3630.731918,14127.24602,28027790.43,14586.33931,-100332023,4.088113192e+11,0.03020965538,0.2027904
501.4641936,27076816.35,7240835.738,-3661.29567,14119.11108,28028265.84,14586.10241,-100331972.2,4.088114183e+11,0.0302100169,0.2209631999
506.078256,27059850.88,7305962.881,-3694.158722,14110.28273,28028782.05,14585.84545,-100331913.3,4.08811533e+11,0.03021043525,0.2111440001
510.6682416,27042823.53,7370709.593,-3726.827959,14101.42251,28029300.1,14585.58752,-100331854.9,4.088116469e+11,0.03021085033,0.2363136001
515.406576,27025088.72,7437506.114,-3760.529517,14092.1945,28029839.77,14585.31892,-100331792.8,4.088117679e+11,0.03021129112,0.220444
519.979992,27007819.63,7501936.092,-3793.035157,14083.20917,28030365.08,14585.05729,-100331735.1,4.088118805e+11,0.03021170062,0.2400600001
524.6133154,26990172.85,7567167.982,-3825.943456,14074.02767,28030901.91,14584.78996,-100331675.7,4.088119963e+11,0.03021212201,0.2164011429
529.1402057,26972784.13,7630860.137,-3858.073106,14064.98078,28031430.76,14584.52647,-100331619.1,4.088121066e+11,0.03021252272,0.2322788571
533.7057669,26955099.63,7695054.744,-3890.454323,14055.78035,28031968.6,14584.2585,-100331561.6,4.088122187e+11,0.03021292986,0.2348468571
538.572696,26936085.32,7763440.398,-3924.94749,14045.88847,28032547.14,14583.9705,-100331496.3,4.088123461e+11,0.03021339233,0.2490411429
543.409083,26917024.06,7831349.006,-3959.197858,14035.97258,28033127.04,14583.68177,-100331431.8,4.088124719e+11,0.03021384859,0.241743
547.998663,26898782.19,7895747.568,-3991.675871,14026.48333,28033681.76,14583.40533,-100331373.7,4.088125852e+11,0.03021425919,0.233679
552.61578,26880280.55,7960488.407,-4024.324499,14016.85933,28034244.38,14583.12495,-100331314.9,4.088126998e+11,0.03021467447,0.220332
557.097378,26862177.73,8023286.319,-4055.991373,14007.44316,28034794.73,14582.85054,-100331259.5,4.088128078e+11,0.03021506522,0.2226419999
561.73599,26843291.39,8088239.8,-4088.743204,13997.61984,28035369.01,14582.56432,-100331200.1,4.088129236e+11,0.03021548385,0.2325660001
566.3966064,26824162.52,8153455.342,-4121.625081,13987.67078,28035950.65,14582.27442,-100331140.3,4.088130404e+11,0.03021590588,0.2307024
571.062312,26804859.33,8218695.479,-4154.517242,13977.63147,28036537.57,14581.98186,-100331080.2,4.088131574e+11,0.03021632855,0.240156
575.767638,26785236.88,8284442.015,-4187.662553,13967.42655,28037134.2,14581.68448,-100331019.2,4.088132764e+11,0.03021675802,0.2354190001
580.41504,26765702.92,8349331.87,-4220.37383,13957.26808,28037728.07,14581.3884,-100330959.6,4.088133928e+11,0.03021717742,0.222234
585.021561,26746190.78,8413604.146,-4252.77166,13947.12139,28038321.21,14581.09262,-100330901.1,4.088135068e+11,0.03021758837,0.224889
589.4167488,26727434.56,8474884.029,-4283.659125,13937.3682,28038891.16,14580.8082,-100330847.8,4.088136108e+11,0.03021796252,0.2096016001
593.7092352,26708985.55,8534690.457,-4313.802027,13927.77514,28039451.67,14580.52839,-100330797,4.088137098e+11,0.03021831874,0.2180064
598.240224,26689371.33,8597775.13,-4345.59516,13917.57661,28040047.77,14580.231,-100330740.5,4.088138201e+11,0.03021871529,0.2240064
602.840088,26669311.7,8661771.33,-4377.845533,13907.14695,28040657.43,14579.92688,-100330682.2,4.088139338e+11,0.03021912354,0.2316
607.38144,26649361.73,8724906.234,-4409.659721,13896.77474,28041263.69,14579.62438,-100330625.4,4.088140446e+11,0.03021952127,0.2223648001
611.903784,26629351.72,8787729.911,-4441.314953,13886.37178,28041871.73,14579.32096,-100330569.1,4.088141545e+11,0.0302199152,0.2243664001
616.7097067,26607930.37,8854441.353,-4474.926789,13875.23557,28042522.89,14578.99625,-100330505.4,4.088142786e+11,0.03022036011,0.2249386666
