t,x,y,vx,vy,r,v,energy,h,e,dt_eff
0,28000000,0,0,14600,28000000,14600,-100337835.7,4.088e+11,0.03016735732,0
21.905592,27998226.97,319814.8926,-161.8769055,14599.0755,28000053.49,14599.97293,-100337835.7,4.088e+11,0.03016735732,1.0952796
26.4496896,27997415.1,386153.5848,-195.4546025,14598.65216,28000077.98,14599.96053,-100337835.7,4.088e+11,0.03016735732,0.2275248
30.905568,27996470.82,451202.3351,-228.3792946,14598.15979,28000106.47,14599.94611,-100337835.7,4.088e+11,0.03016735732,0.218064
35.375448,27995376.18,516453.1106,-261.4061339,14597.58902,28000139.49,14599.9294,-100337835.7,4.088e+11,0.03016735732,0.210228
39.75164,27994161.47,580333.6039,-293.7392807,14596.95564,28000176.13,14599.91085,-100337835.7,4.088e+11,0.03016735732,0.228308
44.389128,27992719.81,648025.0995,-328.0012215,14596.20393,28000219.62,14599.88884,-100337835.7,4.088e+11,0.03016735732,0.244656
48.88318,27991171.15,713619.4136,-361.2015167,14595.39643,28000266.34,14599.86519,-100337835.7,4.088e+11,0.03016735732,0.218716
53.421144,27989455.97,779850.798,-394.7240856,14594.50211,28000318.09,14599.839,-100337835.7,4.088e+11,0.03016735732,0.2180304
58.005072,27987568.98,846748.7207,-428.5838212,14593.5182,28000375.01,14599.81019,-100337835.7,4.088e+11,0.03016735732,0.2168784
62.652312,27985497.49,914565.8246,-462.9085719,14592.43809,28000437.5,14599.77856,-100337835.7,4.088e+11,0.03016735732,0.2342736
67.18596,27983322.92,980720.2621,-496.3915556,14591.30425,28000503.1,14599.74535,-100337835.7,4.088e+11,0.03016735732,0.2251488
71.714352,27980999.35,1046792.694,-529.8327904,14590.09272,28000573.2,14599.70987,-100337835.7,4.088e+11,0.03016735732,0.232152
76.280736,27978502.94,1113413.719,-563.5514215,14588.79108,28000648.51,14599.67175,-100337835.7,4.088e+11,0.03016735732,0.224904
80.787096,27975888.41,1179153.021,-596.8235151,14587.42785,28000727.38,14599.63183,-100337835.7,4.088e+11,0.03016735732,0.2240736
85.29852,27973120.75,1244959.868,-630.1295044,14585.9848,28000810.88,14599.58957,-100337835.7,4.088e+11,0.03016735732,0.2199408
90.027744,27970058.18,1313936.515,-665.039456,14584.38798,28000903.27,14599.54281,-100337835.7,4.088e+11,0.03016735732,0.2290368
94.629144,27966919.93,1381041.385,-699.0017367,14582.75172,28000997.94,14599.49489,-100337835.7,4.088e+11,0.03016735732,0.2329104
99.145752,27963687.53,1446902.181,-732.3340391,14581.06638,28001095.45,14599.44554,-100337835.7,4.088e+11,0.03016735732,0.2237904
103.701768,27960274.42,1513329.729,-765.9528145,14579.28684,28001198.42,14599.39342,-100337835.7,4.088e+11,0.03016735732,0.2304432
108.229008,27956731.16,1579329.508,-799.3547211,14577.43944,28001305.31,14599.33932,-100337835.7,4.088e+11,0.03016735732,0.2266752
112.852368,27952956.61,1646721.741,-833.4609328,14575.47148,28001419.17,14599.28169,-100337835.7,4.088e+11,0.03016735732,0.2244624
117.456696,27949040.9,1713827.323,-867.4216527,14573.42993,28001537.3,14599.2219,-100337835.7,4.088e+11,0.03016735732,0.2343744
122.01372,27945011.46,1780234.037,-901.0282575,14571.3291,28001658.86,14599.16038,-100337835.7,4.088e+11,0.03016735732,0.2255184
126.671784,27940734.42,1848103.059,-935.3744349,14569.09921,28001787.89,14599.09508,-100337835.7,4.088e+11,0.03016735732,0.2311248
131.215104,27936408.62,1914290.046,-968.8689255,14566.84391,28001918.38,14599.02903,-100337835.7,4.088e+11,0.03016735732,0.2190384
135.7042848,27931984.92,1979678.094,-1001.958638,14564.53759,28002051.84,14598.96148,-100337835.7,4.088e+11,0.03016735732,0.2335392
140.1830208,27927423.5,2044903.516,-1034.965573,14562.1595,28002189.44,14598.89184,-100337835.7,4.088e+11,0.03016735732,0.2216592
144.7044144,27922668.69,2110739.197,-1068.280823,14559.68061,28002332.88,14598.81924,-100337835.7,4.088e+11,0.03016735732,0.2225856
149.2383792,27917749.42,2176746.492,-1101.682394,14557.116,28002481.28,14598.74413,-100337835.7,4.088e+11,0.03016735732,0.2270928
153.8601168,27912579.07,2244019.465,-1135.723877,14554.42052,28002637.26,14598.66519,-100337835.7,4.088e+11,0.03016735732,0.2222592
158.274528,27907493.76,2308262.838,-1168.231782,14551.76941,28002790.67,14598.58755,-100337835.7,4.088e+11,0.03016735732,0.22104
162.7433136,27902199.66,2373285.437,-1201.133431,14549.00948,28002950.38,14598.50672,-100337835.7,4.088e+11,0.03016735732,0.2294544
167.2732944,27896683.02,2439185.687,-1234.478591,14546.13357,28003116.8,14598.42249,-100337835.7,4.088e+11,0.03016735732,0.2245776
171.7837296,27891040.13,2504788.475,-1267.672636,14543.19188,28003287.03,14598.33634,-100337835.7,4.088e+11,0.03016735732,0.2251584
176.2454784,27885310.85,2569669.909,-1300.501082,14540.20519,28003459.87,14598.24887,-100337835.7,4.088e+11,0.03016735732,0.2156016
180.7135968,27879426.63,2634630.443,-1333.368933,14537.13776,28003637.38,14598.15903,-100337835.7,4.088e+11,0.03016735732,0.2269152
185.1696144,27873412.09,2699401.227,-1366.140144,14534.00245,28003818.82,14598.0672,-100337835.7,4.088e+11,0.03016735732,0.2166336
189.587424,27867304.99,2763602.678,-1398.622659,14530.81892,28004003.06,14597.97397,-100337835.7,4.088e+11,0.03016735732,0.219744
194.0060832,27861053.19,2827802.243,-1431.103569,14527.56001,28004191.66,14597.87852,-100337835.7,4.088e+11,0.03016735732,0.2113728
198.2599584,27854898.96,2889593.871,-1462.365587,14524.352,28004377.31,14597.78456,-100337835.7,4.088e+11,0.03016735732,0.2066736
202.4439072,27848716.19,2950356.298,-1493.106289,14521.12915,28004563.83,14597.69017,-100337835.7,4.088e+11,0.03016735732,0.2061408
206.6190192,27842418.28,3010976.808,-1523.774574,14517.84633,28004753.82,14597.59402,-100337835.7,4.088e+11,0.03016735732,0.2076288
210.9871728,27835692.13,3074385.36,-1555.852667,14514.34035,28004956.73,14597.49133,-100337835.7,4.088e+11,0.03016735732,0.2159472
215.3314128,27828863.85,3137431.433,-1587.746684,14510.78117,28005162.73,14597.38709,-100337835.7,4.088e+11,0.03016735732,0.2146512
219.733488,27821803.35,3201300.91,-1620.056519,14507.10101,28005375.72,14597.2793,-100337835.7,4.088e+11,0.03016735732,0.224496
224.092128,27814672.41,3264524.067,-1652.038661,14503.38419,28005590.84,14597.17043,-100337835.7,4.088e+11,0.03016735732,0.219696
228.4435488,27807414.24,3327626.19,-1683.958832,14499.60111,28005809.8,14597.05963,-100337835.7,4.088e+11,0.03016735732,0.2161872
232.8347568,27799948.92,3391288.439,-1716.161573,14495.71013,28006035.01,14596.94566,-100337835.7,4.088e+11,0.03016735732,0.2155872
237.1905408,27792404.14,3454420.083,-1748.095136,14491.77779,28006262.62,14596.83048,-100337835.7,4.088e+11,0.03016735732,0.2147472
241.6125072,27784602.46,3518493.275,-1780.504149,14487.71163,28006497.97,14596.71138,-100337835.7,4.088e+11,0.03016735732,0.2158368
245.9562432,27776799.3,3581415.263,-1812.330063,14483.64476,28006733.38,14596.59226,-100337835.7,4.088e+11,0.03016735732,0.2170128
250.3128816,27768834.11,3644506.249,-1844.240639,14479.49352,28006973.66,14596.47067,-100337835.7,4.088e+11,0.03016735732,0.2151984
254.6685984,27760731.66,3707565.652,-1876.134407,14475.2708,28007218.09,14596.34698,-100337835.7,4.088e+11,0.03016735732,0.2150016
259.082352,27752379.56,3771446.352,-1908.442702,14470.91807,28007470.05,14596.21948,-100337835.7,4.088e+11,0.03016735732,0.215544
263.4236304,27744025.52,3834259.212,-1940.210063,14466.56439,28007722.07,14596.09196,-100337835.7,4.088e+11,0.03016735732,0.2126496
267.7891344,27735485.82,3897403.369,-1972.1441,14462.11404,28007979.69,14595.9616,-100337835.7,4.088e+11,0.03016735732,0.2180256
272.1592176,27726797.55,3960594.144,-2004.100818,14457.58636,28008241.8,14595.82897,-100337835.7,4.088e+11,0.03016735732,0.2144304
276.5349264,27717958.2,4023846.28,-2036.087656,14452.98002,28008508.46,14595.69404,-100337835.7,4.088e+11,0.03016735732,0.2160096
280.9984032,27708797.38,4088346.196,-2068.704545,14448.20626,28008784.81,14595.5542,-100337835.7,4.088e+11,0.03016735732,0.2125248
285.404064,27699612.47,4151989.575,-2100.887333,14443.42003,28009061.9,14595.414,-100337835.7,4.088e+11,0.03016735732,0.223872
289.7324928,27690450.52,4214496.584,-2132.494544,14438.64587,28009338.29,14595.27415,-100337835.7,4.088e+11,0.03016735732,0.2072304
293.9812368,27681324.21,4275832.616,-2163.508717,14433.89037,28009613.61,14595.13485,-100337835.7,4.088e+11,0.03016735732,0.2075664
298.4011008,27671690.51,4339617.382,-2195.760092,14428.87059,28009904.23,14594.9878,-100337835.7,4.088e+11,0.03016735732,0.2407344
302.8352736,27661882.42,4403586.185,-2228.103498,14423.76004,28010200.11,14594.83809,-100337835.7,4.088e+11,0.03016735732,0.2329248
307.3111392,27651836.69,4468133.31,-2260.738255,14418.52578,28010503.17,14594.68475,-100337835.7,4.088e+11,0.03016735732,0.2198016
311.7295632,27641776.64,4531828.918,-2292.941433,14413.28417,28010806.65,14594.5312,-100337835.7,4.088e+11,0.03016735732,0.2220336
316.1406864,27631591.31,4595396.013,-2325.078578,14407.9774,28011113.92,14594.37574,-100337835.7,4.088e+11,0.03016735732,0.2165712
320.528256,27621319.76,4658600.303,-2357.031237,14402.62583,28011423.78,14594.21896,-100337835.7,4.088e+11,0.03016735732,0.217104
324.9351552,27610861.87,4722059.245,-2389.111549,14397.1773,28011739.27,14594.05934,-100337835.7,4.088e+11,0.03016735732,0.2216976
329.4818688,27599924.05,4787506.162,-2422.195686,14391.47885,28012069.23,14593.8924,-100337835.7,4.088e+11,0.03016735732,0.2277984
334.1114592,27588632.32,4854119.228,-2455.868103,14385.59617,28012409.88,14593.72006,-100337835.7,4.088e+11,0.03016735732,0.2320416
338.6836752,27577327.57,4919879.848,-2489.108389,14379.70684,28012750.91,14593.54752,-100337835.7,4.088e+11,0.03016735732,0.2271936
343.1909808,27566034.58,4984680.351,-2521.862153,14373.82378,28013091.59,14593.37517,-100337835.7,4.088e+11,0.03016735732,0.2265504
347.7287424,27554516.18,5049891.752,-2554.822381,14367.82344,28013439.07,14593.19937,-100337835.7,4.088e+11,0.03016735732,0.2292432
352.245384,27542902.9,5114772.428,-2587.614209,14361.77383,28013789.41,14593.02213,-100337835.7,4.088e+11,0.03016735732,0.217824
356.7313296,27531221.98,5179184.945,-2620.168182,14355.68914,28014141.79,14592.84386,-100337835.7,4.088e+11,0.03016735732,0.2229408
361.136664,27519608.87,5242413.259,-2652.122446,14349.63992,28014492.13,14592.66663,-100337835.7,4.088e+11,0.03016735732,0.21516
365.57676,27507761.72,5306113.365,-2684.313909,14343.46895,28014849.53,14592.48583,-100337835.7,4.088e+11,0.03016735732,0.216096
369.8454,27496237.33,5367327.683,-2715.247973,14337.46624,28015197.19,14592.30995,-100337835.7,4.088e+11,0.03016735732,0.210888
374.1975072,27484351.67,5429712.428,-2746.772294,14331.27552,28015555.75,14592.12857,-100337835.7,4.088e+11,0.03016735732,0.2215776
378.9706464,27471158.47,5498101.235,-2781.329177,14324.40394,28015953.75,14591.92723,-100337835.7,4.088e+11,0.03016735732,0.2453952
383.485456,27458527.54,5562758.37,-2813.999065,14317.8254,28016334.79,14591.73448,-100337835.7,4.088e+11,0.03016735732,0.222728
387.8349024,27446219.78,5625019.07,-2845.4568,14311.41536,28016706.09,14591.54666,-100337835.7,4.088e+11,0.03016735732,0.2241264
392.1852288,27433772.71,5687264.323,-2876.905456,14304.93292,28017081.58,14591.35672,-100337835.7,4.088e+11,0.03016735732,0.2134128
396.5413056,27421172.13,5749563.443,-2908.380036,14298.37071,28017461.71,14591.16443,-100337835.7,4.088e+11,0.03016735732,0.2127216
400.8606672,27408542.41,5811309.097,-2939.573707,14291.79351,28017842.71,14590.97171,-100337835.7,4.088e+11,0.03016735732,0.2117472
405.2232528,27395649.57,5873643.65,-2971.063571,14285.07947,28018231.66,14590.77497,-100337835.7,4.088e+11,0.03016735732,0.2120208
409.5967872,27382586.52,5936105.087,-3002.61619,14278.27698,28018625.73,14590.57564,-100337835.7,4.088e+11,0.03016735732,0.2140512
414.0843072,27369039.61,6000163.341,-3034.974036,14271.22273,28019034.41,14590.36893,-100337835.7,4.088e+11,0.03016735732,0.2448432
418.602856,27355252.35,6064632.366,-3067.537916,14264.04353,28019450.33,14590.15855,-100337835.7,4.088e+11,0.03016735732,0.224308
423.3720528,27340540.74,6132642.164,-3101.888665,14256.38324,28019894.14,14589.93408,-100337835.7,4.088e+11,0.03016735732,0.2396304
427.952736,27326256.44,6197929.135,-3134.862585,14248.94569,28020325.06,14589.71613,-100337835.7,4.088e+11,0.03016735732,0.219408
432.4149264,27312196.46,6261494.338,-3166.965413,14241.62515,28020749.22,14589.5016,-100337835.7,4.088e+11,0.03016735732,0.2207232
