t,x,y,vx,vy,r,v,energy,h,e,dt_eff
0,7000000,0,0,10670,7000000,10670,-14304.28571,7.469e+10,0.9994975554,0
36.431,6994604.905,388618.9302,-296.0295247,10661.78266,7005392.384,10665.89157,-14304.28571,7.469e+10,0.9994975554,1.82155
114.78,6946689.715,1221601.456,-924.2335797,10589.35377,7053283.499,10629.61057,-14304.28573,7.469e+10,0.9994975554,3.91745
192.511,6851383.179,2039657.668,-1522.591294,10448.17274,7148542.15,10558.532,-14304.28575,7.469e+10,0.9994975554,3.88655
266.462,6718808.939,2805582.347,-2056.234124,10257.92912,7281049.778,10461.98875,-14304.28578,7.469e+10,0.9994975554,3.69755
340.87,6547171.478,3560310.001,-2549.314908,10021.67865,7452601,10340.84375,-14304.2858,7.469e+10,0.9994975554,3.7204
423.633,6315446.724,4377465.664,-3039.954639,9719.455429,7684209.326,10183.76836,-14304.28583,7.469e+10,0.9994975554,4.13815
498.887,6071624.914,5097755.009,-3431.340892,9420.520139,7927908.629,10025.98125,-14304.28584,7.469e+10,0.9994975554,3.7627
583.87,5763393.883,5883428.968,-3812.049404,9067.934479,8235984.791,9836.62322,-14304.28586,7.469e+10,0.9994975554,4.24915
666.914,5433433.241,6621962.258,-4125.374171,8718.599426,8565779.646,9645.345406,-14304.28586,7.469e+10,0.9994975554,4.1522
742.073,5114164.71,7265435.284,-4363.683411,8405.271049,8884887.762,9470.497047,-14304.28587,7.469e+10,0.9994975554,3.75795
828.858,4725228.22,7979499.358,-4591.6574,8052.705807,9273628.833,9269.810596,-14304.28587,7.469e+10,0.9994975554,4.33925
915.201,4320566.043,8660143.786,-4775.062847,7715.949444,9678087.689,9073.979337,-14304.28587,7.469e+10,0.9994975554,4.31715
1001.181,3903482.764,9309729.755,-4921.255955,7397.096066,10094961.41,8884.58161,-14304.28587,7.469e+10,0.9994975554,4.299
1083.193,3495157.526,9904473.462,-5032.20355,7109.457386,10503081.49,8710.192701,-14304.28587,7.469e+10,0.9994975554,4.1006
1167.049,3069274.777,10488905.3,-5121.571085,6832.339044,10928750.25,8538.814157,-14304.28587,7.469e+10,0.9994975554,4.1928
1238.829,2699404.778,10971227.55,-5181.798201,6608.60978,11298434.41,8397.90187,-14304.28587,7.469e+10,0.9994975554,3.589
1311.654,2320214.213,11444609.27,-5229.944424,6393.948223,11677434.45,8260.441426,-14304.28587,7.469e+10,0.9994975554,3.64125
1383.391,1943662.878,11896057.62,-5266.507931,6194.139081,12053796.59,8130.403726,-14304.28587,7.469e+10,0.9994975554,3.58685
1454.272,1569357.797,12328428.64,-5293.623408,6007.515681,12427913.61,8007.040242,-14304.28587,7.469e+10,0.9994975554,3.54405
1525.522,1191447.791,12750086.57,-5313.193093,5830.157368,12805633.73,7888.013424,-14304.28587,7.469e+10,0.9994975554,3.5625
1596.795,812260.9877,13159585.89,-5326.20426,5662.413501,13184630.02,7773.762183,-14304.28587,7.469e+10,0.9994975554,3.56365
1668.185,431727.2456,13558100.61,-5333.637243,5503.497084,13564972.56,7663.9524,-14304.28587,7.469e+10,0.9994975554,3.5695
1739.281,52406.43072,13944004.31,-5336.30292,5353.715079,13944102.79,7558.994246,-14304.28587,7.469e+10,0.9994975554,3.5548
1811.757,-334319.3768,14326734.09,-5334.888279,5209.167899,14330634.29,7456.303585,-14304.28587,7.469e+10,0.9994975554,3.6238
1883.637,-717634.2522,14696245.56,-5329.989767,5073.389978,14713756.57,7358.53768,-14304.28587,7.469e+10,0.9994975554,3.594
1955.123,-1098391.194,15054305.01,-5322.193213,4945.341888,15094322.2,7265.132276,-14304.28587,7.469e+10,0.9994975554,3.5743
2035.423,-1525313.163,15445898.54,-5310.509507,4809.236029,15521029.67,7164.514108,-14304.28587,7.469e+10,0.9994975554,4.015
2121.742,-1983064.602,15855016.57,-5295.083901,4671.377306,15978551.11,7061.13868,-14304.28587,7.469e+10,0.9994975554,4.31595
2208.411,-2441223.105,16254177.47,-5277.153647,4541.081027,16436479.41,6962.023234,-14304.28587,7.469e+10,0.9994975554,4.33345
2290.63,-2874341.633,16622699.92,-5258.307472,4424.410464,16869380.32,6872.059766,-14304.28587,7.469e+10,0.9994975554,4.11095
2375.489,-3319676.506,16993274.01,-5237.341131,4310.532342,17314491.44,6783.098938,-14304.28587,7.469e+10,0.9994975554,4.24295
2460.635,-3764674.536,17355654.71,-5215.062695,4202.442272,17759265.88,6697.56672,-14304.28587,7.469e+10,0.9994975554,4.2573
2543.509,-4195935.592,17699760.21,-5192.432007,4102.732532,18190310.25,6617.685727,-14304.28587,7.469e+10,0.9994975554,4.1437
2625.043,-4618362.787,18030441.47,-5169.453148,4009.542615,18612525.2,6542.146271,-14304.28587,7.469e+10,0.9994975554,4.0767
2704.797,-5029732.951,18346730.43,-5146.446846,3922.767496,19023688.68,6471.013828,-14304.28587,7.469e+10,0.9994975554,3.9877
2788.179,-5457836.232,18670186.55,-5121.974192,3836.358,19451576.86,6399.395466,-14304.28587,7.469e+10,0.9994975554,4.1691
2873.257,-5892529.735,18992976.48,-5096.687462,3752.423168,19886051.95,6329.052276,-14304.28587,7.469e+10,0.9994975554,4.2539
2955.35,-6309923.403,19297830.31,-5072.087821,3675.209446,20303235.9,6263.644253,-14304.28587,7.469e+10,0.9994975554,4.10465
3029.866,-6687039.873,19569175.63,-5049.65977,3608.125478,20680162.89,6206.257589,-14304.28587,7.469e+10,0.9994975554,3.7258
3110.752,-7094500.433,19858179.48,-5025.271747,3538.3391,21087418.73,6145.99054,-14304.28587,7.469e+10,0.9994975554,4.0443
3195.099,-7517294.748,20153669.79,-4999.853251,3468.720104,21510000.61,6085.273346,-14304.28587,7.469e+10,0.9994975554,4.21735
3277.271,-7927127.332,20436015.08,-4975.15472,3403.797586,21919627.28,6028.101069,-14304.28587,7.469e+10,0.9994975554,4.1086
3362.027,-8347725.763,20721769.16,-4949.791721,3339.645099,22340014.38,5971.069207,-14304.28587,7.469e+10,0.9994975554,4.2378
3448.114,-8772735.097,21006563.28,-4924.186753,3277.226583,22764810.17,5915.051078,-14304.28587,7.469e+10,0.9994975554,4.30435
3530.079,-9175352.946,21272828.82,-4899.985075,3220.207868,23167225.73,5863.411332,-14304.28587,7.469e+10,0.9994975554,4.09825
3607.661,-9554620.826,21520632.15,-4877.259203,3168.278652,23546303.05,5815.982028,-14304.28587,7.469e+10,0.9994975554,3.8791
3691.533,-9962663.53,21784081.2,-4852.909499,3114.244947,23954140.73,5766.216454,-14304.28587,7.469e+10,0.9994975554,4.1936
3775.302,-10368176.74,22042770.35,-4828.833558,3062.338729,24359450.19,5718.00245,-14304.28587,7.469e+10,0.9994975554,4.18845
3861.833,-10784954.22,22305511.51,-4804.234706,3010.760347,24776018.27,5669.68685,-14304.28587,7.469e+10,0.9994975554,4.32655
3944.404,-11180684.82,22552144.42,-4781.029532,2963.366647,25171550.03,5624.925357,-14304.28587,7.469e+10,0.9994975554,4.12855
4030.689,-11592180.1,22805766.58,-4757.069393,2915.639153,25582838.56,5579.485718,-14304.28587,7.469e+10,0.9994975554,4.31425
4114.371,-11989298.98,23047874.76,-4734.120712,2871.012002,25979757.91,5536.66044,-14304.28587,7.469e+10,0.9994975554,4.1841
4198.544,-12386822.84,23287702.26,-4711.328989,2827.684484,26377082.03,5494.762997,-14304.28587,7.469e+10,0.9994975554,4.20865
4273.544,-12739418.83,23498370.68,-4691.270154,2790.331764,26729500.87,5458.385019,-14304.28587,7.469e+10,0.9994975554,3.75
4358.193,-13135581.84,23732832.36,-4668.914537,2749.5216,27125464.83,5418.360636,-14304.28587,7.469e+10,0.9994975554,4.23245
4433.095,-13484560,23937460.68,-4649.384842,2714.546627,27474267.64,5383.822322,-14304.28587,7.469e+10,0.9994975554,3.7451
4523.237,-13902617.08,24180308.09,-4626.194947,2673.800111,27892114.68,5343.302978,-14304.28587,7.469e+10,0.9994975554,4.5071
4598.54,-14250262.41,24380406.08,-4607.084329,2640.834654,28239585.33,5310.295066,-14304.28587,7.469e+10,0.9994975554,3.76515
4674.897,-14601313.42,24580806.47,-4587.948426,2608.35935,28590459.95,5277.576078,-14304.28587,7.469e+10,0.9994975554,3.81785
4751.218,-14950748.05,24778669.64,-4569.063749,2576.815627,28939719.01,5245.600282,-14304.28587,7.469e+10,0.9994975554,3.81605
4834.919,-15332326.05,24992938.87,-4548.629163,2543.228633,29321105.29,5211.337558,-14304.28587,7.469e+10,0.9994975554,4.18505
4917.497,-15707120.01,25201619.58,-4528.749158,2511.078632,29695710.94,5178.328382,-14304.28587,7.469e+10,0.9994975554,4.1289
5012.583,-16136665.68,25438673.37,-4506.198903,2475.215318,30125040.78,5141.2566,-14304.28587,7.469e+10,0.9994975554,4.7543
5087.014,-16471417.64,25621887.69,-4488.798589,2447.967394,30459624.56,5112.910828,-14304.28587,7.469e+10,0.9994975554,3.72155
5161.437,-16804846.85,25803080.53,-4471.618068,2421.415767,30792886.23,5085.137408,-14304.28587,7.469e+10,0.9994975554,3.72115
5237.497,-17144297.41,25986243.3,-4454.281926,2394.968594,31132166.23,5057.321627,-14304.28587,7.469e+10,0.9994975554,3.803
5314.514,-17486684.1,26169687.27,-4436.953513,2368.870259,31474380.9,5029.721939,-14304.28587,7.469e+10,0.9994975554,3.85085
5389.385,-17818259.35,26346117.03,-4420.32272,2344.131313,31805789.55,5003.419287,-14304.28587,7.469e+10,0.9994975554,3.74355
5475.984,-18200231.24,26547904.14,-4401.346888,2316.263718,32187569.52,4973.623633,-14304.28587,7.469e+10,0.9994975554,4.32995
5561.577,-18576162.7,26745008.39,-4382.861115,2289.474849,32563312.09,4944.812093,-14304.28587,7.469e+10,0.9994975554,4.27965
5637.386,-18907809.47,26917691.15,-4366.708486,2266.349808,32894792.23,4919.805327,-14304.28587,7.469e+10,0.9994975554,3.79045
