t,x,y,vx,vy,r,v,energy,h,e,dt_eff
0,27000000,0,0,-19900,27000000,19900,-55112629.63,5.373e+11,0.5645295058,0
34.586,26994393.54,-688213.7632,-324.173867,-19895.86831,27003165.01,19898.50911,-55112629.63,5.373e+11,0.5645295058,1.7293
148.507,26896800.55,-2951526.351,-1387.446136,-19824.10195,27058259.14,19872.59482,-55112629.63,5.373e+11,0.5645295058,5.69605
258.251,26688994.59,-5119498.687,-2396.172417,-19672.25842,27175571.73,19817.65358,-55112629.63,5.373e+11,0.5645295058,5.4872
355.582,26413086.83,-7024986.34,-3269.294469,-19472.66726,27331329.8,19745.20338,-55112629.63,5.373e+11,0.5645295058,4.86655
456.36,26039237.04,-8974451.39,-4144.534672,-19205.82674,27542379.04,19647.92479,-55112629.63,5.373e+11,0.5645295058,5.0389
568.613,25521205.59,-11110600.39,-5077.131136,-18842.76286,27834823.08,19514.78857,-55112629.63,5.373e+11,0.5645295058,5.61265
677.284,24922616.9,-13136463.53,-5930.873119,-18432.62701,28172744.05,19363.28987,-55112629.63,5.373e+11,0.5645295058,5.43355
772.365,24324931.54,-14870327.76,-6634.226274,-18032.8105,28510155.07,19214.45322,-55112629.63,5.373e+11,0.5645295058,4.75405
866.926,23666200.52,-16555437.3,-7290.919244,-17602.97954,28882028.17,19053.14652,-55112629.63,5.373e+11,0.5645295058,4.72805
959.681,22961712.46,-18167622.15,-7892.240355,-17155.37376,29279732.47,18883.70479,-55112629.63,5.373e+11,0.5645295058,4.63775
1054.993,22181813.69,-19779940.27,-8465.358743,-16673.82636,29720008.34,18699.7001,-55112629.63,5.373e+11,0.5645295058,4.7656
1148.842,21362602.39,-21321846.88,-8985.438086,-16183.13437,30182477.29,18510.31971,-55112629.63,5.373e+11,0.5645295058,4.69245
1245.13,20473524.18,-22855338.21,-9474.133557,-15667.33067,30684388.17,18309.13589,-55112629.63,5.373e+11,0.5645295058,4.8144
1340.732,19546334.66,-24328346.78,-9915.590141,-15147.08971,31207814.01,18103.95687,-55112629.63,5.373e+11,0.5645295058,4.7801
1434.554,18597315.97,-25725350.05,-10308.01255,-14632.36788,31743563.07,17898.63997,-55112629.63,5.373e+11,0.5645295058,4.6911
1527.52,17622430.75,-27061907.74,-10658.76865,-14121.39958,32293914.54,17692.4638,-55112629.63,5.373e+11,0.5645295058,4.6483
1620.115,16620695.21,-28345973.67,-10972.37783,-13614.18785,32859423.8,17485.39923,-55112629.63,5.373e+11,0.5645295058,4.62975
1716.002,15554436.3,-29626373.7,-11261.7076,-13093.14193,33461358.42,17270.10202,-55112629.63,5.373e+11,0.5645295058,4.79435
1814.3,14434296.04,-30887411.73,-11523.29194,-12565.58248,34093710.65,17049.34368,-55112629.63,5.373e+11,0.5645295058,4.9149
1909.789,13323086.06,-32063136.3,-11745.80608,-12061.216,34721021.47,16835.5841,-55112629.63,5.373e+11,0.5645295058,4.77445
2006.958,12171962.92,-33210561.12,-11942.62672,-11557.59892,35370864.44,16619.39907,-55112629.63,5.373e+11,0.5645295058,4.85845
2116.253,10856086.79,-34443371.14,-12131.17309,-11004.10353,36113715.34,16378.51199,-55112629.63,5.373e+11,0.5645295058,5.46475
2210.756,9702986.49,-35461152.6,-12268.49925,-10537.46453,36764674.49,16172.63839,-55112629.63,5.373e+11,0.5645295058,4.72515
2305.695,8532554.314,-36439778.11,-12384.4973,-10080.41243,37425417.99,15968.42159,-55112629.63,5.373e+11,0.5645295058,4.74695
2397.87,7386573.581,-37348935.31,-12477.7928,-9648.279145,38072357.92,15772.90727,-55112629.63,5.373e+11,0.5645295058,4.60875
2493.13,6194077.841,-38247242.82,-12555.89119,-9213.926976,38745556.95,15573.91582,-55112629.63,5.373e+11,0.5645295058,4.763
2586.019,5024878.82,-39083912.84,-12615.64218,-8802.469097,39405604.3,15383.03903,-55112629.63,5.373e+11,0.5645295058,4.64445
2680.589,3829543.914,-39897036.84,-12661.28681,-8395.823254,40080406.12,15192.03843,-55112629.63,5.373e+11,0.5645295058,4.7285
2775.278,2629052.931,-40673238.39,-12692.99008,-8000.975656,40758118.71,15004.25302,-55112629.63,5.373e+11,0.5645295058,4.73445
2867.76,1454228.093,-41395806.47,-12711.63754,-7627.078928,41421341.99,14824.239,-55112629.63,5.373e+11,0.5645295058,4.6241
2957.867,308407.2338,-42067061.17,-12719.13706,-7273.769232,42068191.67,14652.10451,-55112629.63,5.373e+11,0.5645295058,4.50535
3048.107,-839341.4611,-42707882.65,-12717.02318,-6930.592442,42716129.68,14482.94825,-55112629.63,5.373e+11,0.5645295058,4.512
3138.669,-1990588.327,-43320332.41,-12706.07188,-6596.671533,43366042.5,14316.43593,-55112629.63,5.373e+11,0.5645295058,4.5281
3234.196,-3203460.946,-43934109.33,-12685.80082,-6255.534408,44050744.88,14144.30109,-55112629.63,5.373e+11,0.5645295058,4.77635
3326.664,-4375282.198,-44497687.83,-12658.4351,-5935.867111,44712272.55,13981.07641,-55112629.63,5.373e+11,0.5645295058,4.6234
3416.554,-5511701.987,-45017659.66,-12625.20408,-5634.764126,45353815.06,13825.56852,-55112629.63,5.373e+11,0.5645295058,4.4945
3506.244,-6642346.263,-45509913.57,-12586.1272,-5343.527634,45992097.11,13673.47379,-55112629.63,5.373e+11,0.5645295058,4.4845
3596.167,-7772162.984,-45977626.89,-12541.55174,-5060.468594,46629911.99,13524.01059,-55112629.63,5.373e+11,0.5645295058,4.49615
3686.95,-8908490.022,-46424392.99,-12491.57121,-4783.483051,47271402.13,13376.13776,-55112629.63,5.373e+11,0.5645295058,4.53915
3779.594,-10063214.59,-46854800.26,-12435.89054,-4509.609405,47923278.22,13228.30112,-55112629.63,5.373e+11,0.5645295058,4.6322
3873.136,-11223692.68,-47264044.44,-12375.33525,-4241.776433,48578402.34,13082.10953,-55112629.63,5.373e+11,0.5645295058,4.6771
3981.371,-12559125.76,-47706850.28,-12300.38639,-3942.36772,49332293.72,12916.72438,-55112629.63,5.373e+11,0.5645295058,5.41175
4084.238,-13820576.93,-48098187.48,-12224.81703,-3667.831081,50044420.12,12763.1946,-55112629.63,5.373e+11,0.5645295058,5.14335
4186.82,-15070595.95,-48460799.12,-12145.71398,-3403.382669,50750092.74,12613.53961,-55112629.63,5.373e+11,0.5645295058,5.1291
4281.628,-16218521.84,-48772199.01,-12069.64039,-3166.928745,51398130.78,12478.20727,-55112629.63,5.373e+11,0.5645295058,4.7404
4374.846,-17340045.71,-49056857.4,-11992.36021,-2941.601525,52031264.09,12347.8631,-55112629.63,5.373e+11,0.5645295058,4.6609
4470.679,-18485410.26,-49327944.81,-11910.61667,-2717.074765,52677856.18,12216.59874,-55112629.63,5.373e+11,0.5645295058,4.79165
4565.971,-19616441.23,-49576497.53,-11827.27504,-2500.701908,53316356.53,12088.75283,-55112629.63,5.373e+11,0.5645295058,4.7646
4660.83,-20734357.22,-49803756.14,-11742.49733,-2291.871084,53947453.09,11964.06773,-55112629.63,5.373e+11,0.5645295058,4.74295
4755.463,-21841519.24,-50011033.49,-11656.32016,-2089.809669,54572478.72,11842.17481,-55112629.63,5.373e+11,0.5645295058,4.73165
4855.006,-22997248.89,-50208750,-11564.1473,-1883.763614,55224922.21,11716.57237,-55112629.63,5.373e+11,0.5645295058,4.97715
4950.45,-24096707.62,-50379357.09,-11474.47925,-1692.218224,55845599.1,11598.58943,-55112629.63,5.373e+11,0.5645295058,4.7722
5044.164,-25167858.89,-50529345.45,-11385.36008,-1509.655346,56450295.6,11485.01125,-55112629.63,5.373e+11,0.5645295058,4.6857
5152.637,-26397216.08,-50681934.29,-11281.05073,-1304.890331,57144304,11356.26895,-55112629.63,5.373e+11,0.5645295058,5.42365
5247.518,-27463209.46,-50797469.32,-11188.93681,-1131.319865,57746088.72,11245.98558,-55112629.63,5.373e+11,0.5645295058,4.74405
5344.864,-28547778.06,-50899140.61,-11093.707,-958.3986743,58358359.7,11135.02865,-55112629.63,5.373e+11,0.5645295058,4.8673
5438.17,-29578605.93,-50981017.5,-11001.84523,-797.3757794,58940292.45,11030.7029,-55112629.63,5.373e+11,0.5645295058,4.6653
5533.908,-30627368.45,-51049632.5,-10907.09041,-636.782013,59532349.83,10925.66303,-55112629.63,5.373e+11,0.5645295058,4.7869
5639.701,-31775702.15,-51107842.32,-10801.9017,-464.5653052,60180618.09,10811.88703,-55112629.63,5.373e+11,0.5645295058,5.28965
5741.351,-32868562.06,-51146868.1,-10700.45252,-304.078817,60797569.76,10704.77221,-55112629.63,5.373e+11,0.5645295058,5.0825
5849.441,-34019329.48,-51170744.32,-10592.2658,-138.5719578,61447211.92,10593.17219,-55112629.63,5.373e+11,0.5645295058,5.4045
5959.261,-35176525.44,-51176968.15,-10482.11434,24.36761913,62100483.18,10482.14267,-55112629.63,5.373e+11,0.5645295058,5.491
6064.601,-36275139.87,-51166379.18,-10376.31677,175.9177731,62720683.44,10377.80789,-55112629.63,5.373e+11,0.5645295058,5.267
6158.931,-37249466.94,-51143535.26,-10281.51913,307.836985,63270719.82,10286.12655,-55112629.63,5.373e+11,0.5645295058,4.7165
6268.235,-38367274.23,-51101727.59,-10171.66656,456.3854677,63901755.02,10181.90003,-55112629.63,5.373e+11,0.5645295058,5.4652
6371.36,-39410885.11,-51047613.59,-10068.07163,592.4497663,64490904.16,10085.48775,-55112629.63,5.373e+11,0.5645295058,5.15625
6464.075,-40340031.74,-50987141.58,-9975.013963,711.5153254,65015434.84,10000.35787,-55112629.63,5.373e+11,0.5645295058,4.63575
6555.006,-41242924.1,-50917244,-9883.851721,825.3903185,65525144.22,9918.255594,-55112629.63,5.373e+11,0.5645295058,4.54655
6646.752,-42145513.56,-50836355.03,-9792.005026,937.4700336,66034682.6,9836.778563,-55112629.63,5.373e+11,0.5645295058,4.5873
6737.992,-43034775.04,-50745839.02,-9700.821608,1046.215957,66536696.94,9757.074751,-55112629.63,5.373e+11,0.5645295058,4.562
6828.94,-43912918.81,-50645857.73,-9610.107665,1152.003915,67032435.01,9678.909151,-55112629.63,5.373e+11,0.5645295058,4.5474
6920.651,-44790084.32,-50535412.54,-9518.832508,1256.123384,67527620.82,9601.355023,-55112629.63,5.373e+11,0.5645295058,4.58555
7012.131,-45656710.96,-50415846.7,-9428.005411,1357.503052,68016857.13,9525.234935,-55112629.63,5.373e+11,0.5645295058,4.574
7104.051,-46519147.7,-50286475.95,-9336.977507,1456.955007,68503728.12,9449.9665,-55112629.63,5.373e+11,0.5645295058,4.596
7195.101,-47365184.05,-50149423.64,-9247.059118,1553.151673,68981340.6,9376.58693,-55112629.63,5.373e+11,0.5645295058,4.5525
7287.057,-48211341.26,-50002222.11,-9156.509778,1648.038869,69459021.31,9303.639258,-55112629.63,5.373e+11,0.5645295058,4.5978
7378.557,-49045050.26,-49847190.9,-9066.684421,1740.262276,69929674.64,9232.187129,-55112629.63,5.373e+11,0.5645295058,4.575
7469.915,-49869278.43,-49684078.76,-8977.282588,1830.224695,70394975.77,9161.949852,-55112629.63,5.373e+11,0.5645295058,4.5679
7561.601,-50688267.62,-49512212.92,-8887.854526,1918.445015,70857319.33,9092.545812,-55112629.63,5.373e+11,0.5645295058,4.5843
7652.421,-51491451.3,-49334086.72,-8799.570332,2003.851737,71310740.22,9024.846802,-55112629.63,5.373e+11,0.5645295058,4.541
7743.898,-52292354.11,-49146919.66,-8710.955625,2087.941261,71762873.48,8957.692035,-55112629.63,5.373e+11,0.5645295058,4.57385
7835.837,-53089148.66,-48951144.34,-8622.211246,2170.554541,72212687.52,8891.222289,-55112629.63,5.373e+11,0.5645295058,4.59695
7929.03,-53888499.63,-48745035.34,-8532.587237,2252.40514,72663944.72,8824.872457,-55112629.63,5.373e+11,0.5645295058,4.65965
8021.598,-54674236.71,-48532842.56,-8443.898731,2331.876948,73107516.49,8759.970085,-55112629.63,5.373e+11,0.5645295058,4.6284
8118.995,-55492117.5,-48301730.14,-8350.947809,2413.581938,73569234.33,8692.738756,-55112629.63,5.373e+11,0.5645295058,4.86985
8213.029,-56273185.21,-48071133.79,-8261.564187,2490.657711,74010170.1,8628.83646,-55112629.63,5.373e+11,0.5645295058,4.7017
8307.864,-57052410.36,-47831315.6,-8171.777995,2566.641913,74450065.68,8565.372514,-55112629.63,5.373e+11,0.5645295058,4.74175
8400.648,-57806558.91,-47589787.67,-8084.284377,2639.330656,74875804.79,8504.217789,-55112629.63,5.373e+11,0.5645295058,4.6392
8492.975,-58548950.83,-47342828.05,-7997.567508,2710.083348,75294906.93,8444.266564,-55112629.63,5.373e+11,0.5645295058,4.61635
8585.531,-59285164.03,-47088770.61,-7910.982715,2779.473623,75710521.01,8385.053437,-55112629.63,5.373e+11,0.5645295058,4.6278
8678.334,-60015312.08,-46827657.06,-7824.516309,2847.543864,76122711.13,8326.557604,-55112629.63,5.373e+11,0.5645295058,4.64015
8774.454,-60763115.21,-46550624.66,-7735.328338,2916.500138,76544868.06,8266.878344,-55112629.63,5.373e+11,0.5645295058,4.806
8869.849,-61496819.65,-46269201.33,-7647.183893,2983.421092,76959065.86,8208.545724,-55112629.63,5.373e+11,0.5645295058,4.76975
8960.609,-62187085.43,-45995588.71,-7563.664379,3045.725697,77348741.26,8153.861898,-55112629.63,5.373e+11,0.5645295058,4.538
9052.457,-62877924.29,-45712999.93,-7479.482373,3107.456632,77738740.19,8099.317458,-55112629.63,5.373e+11,0.5645295058,4.5924
9144.554,-63562888.3,-45424012.2,-7395.412972,3168.054133,78125422.58,8045.414844,-55112629.63,5.373e+11,0.5645295058,4.60485
9237.728,-64247999.58,-45126026.1,-7310.706142,3228.067569,78512188.11,7991.673449,-55112629.63,5.373e+11,0.5645295058,4.6587
9329.841,-64917566.85,-44825994.61,-7227.303851,3286.150836,78890178.59,7939.314093,-55112629.63,5.373e+11,0.5645295058,4.60565
9421.127,-65573558.58,-44523433.29,-7144.98182,3342.5192,79260505.28,7888.168343,-55112629.63,5.373e+11,0.5645295058,4.5643
9512.971,-66225991.45,-44213883.46,-7062.487379,3398.061715,79628822.88,7837.445464,-55112629.63,5.373e+11,0.5645295058,4.5922
9608.129,-66893990.73,-43887840.56,-6977.363723,3454.399579,80005928.19,7785.658673,-55112629.63,5.373e+11,0.5645295058,4.7579
9708.087,-67586980.72,-43539641.66,-6888.323914,3512.286577,80397141.49,7732.08661,-55112629.63,5.373e+11,0.5645295058,4.9979
9801.464,-68226321.89,-43209196,-6805.49283,3565.194776,80758068.44,7682.795484,-55112629.63,5.373e+11,0.5645295058,4.66885
9894.699,-68856989.38,-42874375.15,-6723.11863,3616.923887,81114098.85,7634.295155,-55112629.63,5.373e+11,0.5645295058,4.66175
9987.508,-69477162.83,-42536343.88,-6641.446106,3667.351317,81464205.05,7586.716817,-55112629.63,5.373e+11,0.5645295058,4.64045
10080.93,-70093792.44,-42191402.41,-6559.55867,3717.062687,81812310.67,7539.520208,-55112629.63,5.373e+11,0.5645295058,4.6711
10175.659,-70711253.04,-41836942.79,-6476.854619,3766.418956,82160885.39,7492.366616,-55112629.63,5.373e+11,0.5645295058,4.73645
10270.086,-71318963.54,-41479008.89,-6394.740369,3814.588629,82503955.9,7446.058743,-55112629.63,5.373e+11,0.5645295058,4.72135
10363.995,-71915665.24,-41118574.42,-6313.395879,3861.497502,82840811.62,7400.684461,-55112629.63,5.373e+11,0.5645295058,4.69545
10459.264,-72513218,-40748466.03,-6231.194931,3908.092522,83178147.78,7355.336664,-55112629.63,5.373e+11,0.5645295058,4.76345
10556.902,-73117520.14,-40364597.69,-6147.281928,3954.831038,83519294.17,7309.566583,-55112629.63,5.373e+11,0.5645295058,4.8819
10651.234,-73693594.16,-39989438.48,-6066.525389,3999.032202,83844504.95,7266.016023,-55112629.63,5.373e+11,0.5645295058,4.7166
10745.076,-74259131.43,-39612133.83,-5986.491752,4042.092626,84163767.42,7223.336922,-55112629.63,5.373e+11,0.5645295058,4.6921
10839.165,-74818631.17,-39229821.38,-5906.547345,4084.373076,84479621.54,7181.184092,-55112629.63,5.373e+11,0.5645295058,4.70445
10933.583,-75372539.99,-38842214.75,-5826.621248,4125.920743,84792319.41,7139.519392,-55112629.63,5.373e+11,0.5645295058,4.7209
11026.509,-75910340.83,-38456942.3,-5748.245546,4165.968025,85095923.85,7099.127865,-55112629.63,5.373e+11,0.5645295058,4.6463
11121.203,-76450895.15,-38060551.23,-5668.667914,4205.933414,85401082.71,7058.588513,-55112629.63,5.373e+11,0.5645295058,4.7347
11216.446,-76986996.04,-37658084.73,-5588.919261,4245.288448,85703727.49,7018.439464,-55112629.63,5.373e+11,0.5645295058,4.76215
11311.7,-77515575.74,-37251862.37,-5509.448391,4283.820169,86002126.32,6978.906564,-55112629.63,5.373e+11,0.5645295058,4.7627
11404.945,-78025687.94,-36850689.67,-5431.927538,4320.752983,86290099.71,6940.802772,-55112629.63,5.373e+11,0.5645295058,4.66225
11498.092,-78528059.44,-36446535.84,-5354.754681,4356.885221,86573703.24,6903.321412,-55112629.63,5.373e+11,0.5645295058,4.65735
11594.152,-79038625.62,-36026255.02,-5275.443157,4393.365102,86861932.92,6865.271839,-55112629.63,5.373e+11,0.5645295058,4.803
11688.796,-79534227.44,-35608778.68,-5197.569377,4428.544964,87141714.77,6828.377401,-55112629.63,5.373e+11,0.5645295058,4.7322
11786.948,-80040427.19,-35172349.66,-5117.086313,4464.244676,87427479.46,6790.732866,-55112629.63,5.373e+11,0.5645295058,4.9076
11887.77,-80552186.59,-34720441.21,-5034.702807,4500.100029,87716382.75,6752.712983,-55112629.63,5.373e+11,0.5645295058,5.0411
11996.707,-81095818.12,-34228144.73,-4946.011667,4537.930628,88023278.78,6712.365142,-55112629.63,5.373e+11,0.5645295058,5.44685
12105.698,-81630068.22,-33731530.73,-4857.606359,4574.852257,88324878.73,6672.75151,-55112629.63,5.373e+11,0.5645295058,5.44955
12216.942,-82165444.31,-33220553.21,-4767.707129,4611.599618,88627114.33,6633.089952,-55112629.63,5.373e+11,0.5645295058,5.5622
12328.581,-82692685.89,-32703703.81,-4677.820668,4647.544511,88924757.76,6594.063708,-55112629.63,5.373e+11,0.5645295058,5.58195
12436.858,-83194480.62,-32198633.91,-4590.952381,4681.53178,89208035.69,6556.949258,-55112629.63,5.373e+11,0.5645295058,5.41385
12549.754,-83707683.06,-31668149.58,-4500.697988,4716.069165,89497753.61,6519.017621,-55112629.63,5.373e+11,0.5645295058,5.6448
12657.127,-84186341.47,-31160045.26,-4415.15538,4748.080883,89767970.4,6483.661705,-55112629.63,5.373e+11,0.5645295058,5.36865
12751.227,-84598289.6,-30711957.07,-4340.420007,4775.477247,90000527.28,6453.249473,-55112629.63,5.373e+11,0.5645295058,4.705
12845.608,-85004413.89,-30259969.96,-4265.675686,4802.348057,90229796.42,6423.280775,-55112629.63,5.373e+11,0.5645295058,4.71905
12938.994,-85399323.12,-29810279.43,-4191.92656,4828.346208,90452734.34,6394.151655,-55112629.63,5.373e+11,0.5645295058,4.6693
13034.649,-85796697.27,-29347174.16,-4116.59516,4854.377594,90677063.77,6364.85173,-55112629.63,5.373e+11,0.5645295058,4.78275
13129.461,-86183468.33,-28885721.05,-4042.132921,4879.590995,90895407.45,6336.343332,-55112629.63,5.373e+11,0.5645295058,4.7406
13229.152,-86582538.94,-28397974.06,-3964.054849,4905.479539,91120694.58,6306.937478,-55112629.63,5.373e+11,0.5645295058,4.98455
13329.189,-86975181.3,-27905971.56,-3885.923725,4930.826434,91342352.77,6278.013421,-55112629.63,5.373e+11,0.5645295058,5.00185
13432.658,-87373082.87,-27394455.78,-3805.336834,4956.387644,91566979.95,6248.709219,-55112629.63,5.373e+11,0.5645295058,5.17345
13530.587,-87742009.54,-26907921.95,-3729.270638,4979.975715,91775249.94,6221.544633,-55112629.63,5.373e+11,0.5645295058,4.89645
13625.638,-88092979.06,-26433504.23,-3655.627196,5002.316504,91973382.59,6195.706627,-55112629.63,5.373e+11,0.5645295058,4.75255
13719.044,-88431063.6,-25965253,-3583.434122,5023.746276,92164241.29,6170.82059,-55112629.63,5.373e+11,0.5645295058,4.6703
13819.302,-88786454.98,-25460452.89,-3506.134875,5046.177576,92364870.21,6144.66353,-55112629.63,5.373e+11,0.5645295058,5.0129
13915.935,-89121670.88,-24971803.31,-3431.812229,5067.246334,92554109.48,6119.993511,-55112629.63,5.373e+11,0.5645295058,4.83165
14023.029,-89484795.8,-24427908.92,-3349.647176,5089.97221,92759104.21,6093.27115,-55112629.63,5.373e+11,0.5645295058,5.3547
14116.714,-89795247.37,-23950144.64,-3277.94099,5109.32207,92934363.28,6070.42578,-55112629.63,5.373e+11,0.5645295058,4.68425
14211.166,-90101447.55,-23466657.13,-3205.805546,5128.335593,93107222.32,6047.893447,-55112629.63,5.373e+11,0.5645295058,4.7226
14307.06,-90405359.91,-22973975.01,-3132.72707,5147.137371,93278789.81,6025.529189,-55112629.63,5.373e+11,0.5645295058,4.7947
14401.347,-90697353.9,-22487814.54,-3061.024973,5165.136776,93443629.03,6004.041289,-55112629.63,5.373e+11,0.5645295058,4.71435
14504.14,-91007995.25,-21955889.2,-2983.021428,5184.216076,93618995.24,5981.179914,-55112629.63,5.373e+11,0.5645295058,5.13965
14602.771,-91298529.21,-21443683.75,-2908.335761,5201.995824,93783010.24,5959.796763,-55112629.63,5.373e+11,0.5645295058,4.93155
14698.983,-91574847.21,-20942374.76,-2835.628373,5218.847997,93938999.9,5939.458114,-55112629.63,5.373e+11,0.5645295058,4.8106
14799.669,-91856531.08,-20416043.48,-2759.69077,5235.969915,94098018.75,5918.722336,-55112629.63,5.373e+11,0.5645295058,5.0343
14898.844,-92126520.45,-19895950.92,-2685.039338,5252.326765,94250435.72,5898.84503,-55112629.63,5.373e+11,0.5645295058,4.95875
14996.358,-92384776.18,-19383011.19,-2611.775966,5267.923324,94396228.7,5879.829066,-55112629.63,5.373e+11,0.5645295058,4.8757
