t,x,y,vx,vy,r,v,energy,h,e,dt_eff
0,7000000,0,0,10670,7000000,10670,-14304.28571,7.469e+10,0.9994975554,0
33.077,6995552.169,352856.8544,-268.8241824,10663.22454,7004445.596,10666.61258,-14304.28571,7.469e+10,0.9994975554,1.65385
117.643,6944011.312,1251913.044,-946.8072223,10585.33409,7055960.557,10627.59341,-14304.28574,7.469e+10,0.9994975554,4.2283
202.273,6836164.462,2141545.155,-1595.255172,10425.97635,7163753.22,10547.31349,-14304.28577,7.469e+10,0.9994975554,4.2315
285.368,6678702.975,2998991.984,-2185.950869,10201.73395,7321135.591,10433.30038,-14304.28581,7.469e+10,0.9994975554,4.15475
364.041,6486427.52,3791589.623,-2692.981086,9940.652333,7513314.438,10298.96674,-14304.28584,7.469e+10,0.9994975554,3.93365
440.796,6262462.689,4543711.063,-3133.807332,9652.893432,7737166.739,10148.84723,-14304.28586,7.469e+10,0.9994975554,3.83775
518.984,6001696.688,5286252.852,-3527.124921,9338.146984,7997801.72,9982.06388,-14304.28588,7.469e+10,0.9994975554,3.9094
596.469,5715042.325,5997342.533,-3863.188915,9015.004594,8284312.055,9807.881342,-14304.28588,7.469e+10,0.9994975554,3.87425
670.269,5419573.266,6651189.528,-4136.891891,8704.513373,8579632.657,9637.552987,-14304.28589,7.469e+10,0.9994975554,3.69
742.917,5110480.727,7272527.862,-4366.133834,8401.786903,8888569.894,9468.534619,-14304.28589,7.469e+10,0.9994975554,3.6324
815.79,4785028.192,7873925.397,-4560.298596,8104.978175,9213858.907,9299.838413,-14304.28589,7.469e+10,0.9994975554,3.64365
889.527,4442520.892,8460783.303,-4724.644662,7814.438283,9556194.116,9131.687295,-14304.28589,7.469e+10,0.9994975554,3.68685
962.757,4091420.983,9022818.507,-4860.024344,7537.450321,9907117.617,8968.444345,-14304.28589,7.469e+10,0.9994975554,3.6615
1045.596,3683472.255,9634749.467,-4984.488203,7239.284864,10314861.37,8789.332625,-14304.28589,7.469e+10,0.9994975554,4.14195
1128.179,3267613.442,10220889.09,-5082.90279,6958.661026,10730511.24,8617.358299,-14304.28589,7.469e+10,0.9994975554,4.12915
1212.998,2832999.775,10799502.32,-5161.693254,6687.710292,11164906.54,8447.99066,-14304.28589,7.469e+10,0.9994975554,4.24095
1294.872,2407899.699,11336900.87,-5219.900335,6442.339497,11589793.02,8291.62817,-14304.28589,7.469e+10,0.9994975554,4.0937
1371.531,2006092.055,11822404.13,-5261.135618,6226.398487,11991398.78,8151.53888,-14304.28589,7.469e+10,0.9994975554,3.83295
1446.162,1612278.232,12279623.32,-5290.93053,6028.342925,12385014.74,8020.901714,-14304.28589,7.469e+10,0.9994975554,3.73155
1521.241,1214191.481,12725105.46,-5312.213129,5840.534871,12782901.47,7895.02729,-14304.28589,7.469e+10,0.9994975554,3.75395
1593.407,830305.35,13140388.49,-5325.719381,5670.177091,13166594.72,7779.087039,-14304.28589,7.469e+10,0.9994975554,3.6083
1666.51,440660.9905,13548879.21,-5333.520462,5507.125726,13556043.3,7666.477306,-14304.28589,7.469e+10,0.9994975554,3.65515
1740.212,47438.32948,13948987.73,-5336.309749,5351.807348,13949068.39,7557.648022,-14304.28589,7.469e+10,0.9994975554,3.6851
1814.761,-350345.1739,14342373.68,-5334.749244,5203.34598,14346652.03,7452.137874,-14304.2859,7.469e+10,0.9994975554,3.72745
1887.756,-739587.7117,14717127.27,-5329.615098,5065.827378,14735699,7353.054068,-14304.2859,7.469e+10,0.9994975554,3.64975
1961.135,-1130385.901,15084004.93,-5321.419222,4934.875562,15126300.83,7257.444409,-14304.2859,7.469e+10,0.9994975554,3.66895
2034.201,-1518823.599,15440020.42,-5310.707898,4811.248912,15514543.36,7166.012452,-14304.2859,7.469e+10,0.9994975554,3.6533
2108.318,-1911966.071,15792167.99,-5297.65515,4692.269501,15907488.3,7076.902088,-14304.2859,7.469e+10,0.9994975554,3.70585
2180.983,-2296399.831,16129072.46,-5283.062642,4581.475769,16291728.9,6992.90148,-14304.2859,7.469e+10,0.9994975554,3.63325
2254.755,-2685547.966,16463078.93,-5266.727055,4474.521913,16680681.51,6910.84367,-14304.2859,7.469e+10,0.9994975554,3.6886
2327.095,-3065925.468,16783125.88,-5249.467772,4374.691614,17060867.9,6833.362174,-14304.2859,7.469e+10,0.9994975554,3.617
2399.068,-3443096.546,17094551.19,-5231.284272,4280.00103,17437849.47,6759.049042,-14304.2859,7.469e+10,0.9994975554,3.59865
2470.846,-3817911.552,17398501.6,-5212.320277,4189.872516,17812476.15,6687.549205,-14304.2859,7.469e+10,0.9994975554,3.5889
2542.693,-4191698.475,17696411.99,-5192.6587,4103.689184,18186075.27,6618.456715,-14304.2859,7.469e+10,0.9994975554,3.59235
2614.045,-4561491.894,17986276.96,-5172.587867,4021.841628,18555682.88,6552.165697,-14304.2859,7.469e+10,0.9994975554,3.5676
2685.359,-4929641.384,18270278.23,-5152.094921,3943.533855,18923647.4,6488.107686,-14304.2859,7.469e+10,0.9994975554,3.5657
2756.947,-5297722.81,18549873.27,-5131.183,3868.226997,19291543.88,6425.9022,-14304.2859,7.469e+10,0.9994975554,3.5794
2828.031,-5661721.993,18822276.37,-5110.162155,3796.527703,19655360.18,6366.111832,-14304.2859,7.469e+10,0.9994975554,3.5542
2901.333,-6035506.523,19097952.13,-5088.291816,3725.611669,20028956.9,6306.417042,-14304.2859,7.469e+10,0.9994975554,3.6651
2973.04,-6399601.605,19362701.45,-5066.769652,3659.032157,20392869.05,6249.853681,-14304.2859,7.469e+10,0.9994975554,3.58535
3045.058,-6763719.524,19623888.79,-5045.080858,3594.783256,20756804.02,6194.780668,-14304.2859,7.469e+10,0.9994975554,3.6009
3116.658,-7124174.429,19879062.2,-5023.490836,3533.361944,21117077.81,6141.669708,-14304.2859,7.469e+10,0.9994975554,3.58
3189.779,-7490691.269,20135204.77,-5001.454999,3473.019993,21483410.5,6089.040974,-14304.2859,7.469e+10,0.9994975554,3.65605
3262.425,-7853233.116,20385396.85,-4979.610244,3415.323421,21845770.19,6038.290507,-14304.2859,7.469e+10,0.9994975554,3.6323
3333.579,-8206793.255,20626461.75,-4958.28949,3360.870397,22199152.68,5989.998706,-14304.2859,7.469e+10,0.9994975554,3.5577
3406.237,-8566264.739,20868696.27,-4936.620342,3307.256007,22558443.55,5942.067207,-14304.2859,7.469e+10,0.9994975554,3.6329
3477.464,-8917132.434,21102445.68,-4915.499342,3256.546659,22909134.96,5896.374303,-14304.2859,7.469e+10,0.9994975554,3.56135
3551.474,-9280120.862,21341569.64,-4893.699443,3205.693968,23271941,5850.193848,-14304.2859,7.469e+10,0.9994975554,3.7005
3622.755,-9628204.965,21568379.48,-4872.859828,3158.396608,23619850.21,5806.912436,-14304.2859,7.469e+10,0.9994975554,3.56405
3694.806,-9978545.555,21794270.74,-4851.964133,3112.178999,23970014.78,5764.305168,-14304.2859,7.469e+10,0.9994975554,3.60255
3767.348,-10329759.15,22018393.26,-4831.108725,3067.182044,24321051.91,5722.518432,-14304.2859,7.469e+10,0.9994975554,3.6271
3839.696,-10678533.56,22238718.6,-4810.500838,3023.764855,24669651.07,5681.907444,-14304.2859,7.469e+10,0.9994975554,3.6174
3911.345,-11022475.84,22453869.01,-4790.28819,2982.134325,25013420.54,5642.693158,-14304.2859,7.469e+10,0.9994975554,3.58245
3982.657,-11363369.48,22665092.02,-4770.370326,2941.986748,25354142.9,5604.615872,-14304.2859,7.469e+10,0.9994975554,3.5656
4055.858,-11711823.49,22878978.97,-4750.136985,2902.048874,25702421.83,5566.479052,-14304.2859,7.469e+10,0.9994975554,3.66005
4127.396,-12050937.81,23085225.34,-4730.574676,2864.207161,26041365.76,5530.101213,-14304.2859,7.469e+10,0.9994975554,3.5769
4200.14,-12394341.78,23292214.6,-4710.899685,2826.877543,26384597.19,5493.979659,-14304.2859,7.469e+10,0.9994975554,3.6372
4271.405,-12729383.6,23492401.03,-4691.838964,2791.381237,26719470.68,5459.410415,-14304.2859,7.469e+10,0.9994975554,3.56325
4342.817,-13063761.58,23690499.57,-4672.95288,2756.831407,27053680.65,5425.551403,-14304.2859,7.469e+10,0.9994975554,3.5706
4414.092,-13396160.9,23885792.88,-4654.317229,2723.321826,27385912.95,5392.508752,-14304.2859,7.469e+10,0.9994975554,3.56375
4486.379,-13731930.98,24081454.04,-4635.635684,2690.287892,27721514.33,5359.735734,-14304.2859,7.469e+10,0.9994975554,3.61435
4559.189,-14068773.34,24276150.84,-4617.041274,2657.942488,28058187.44,5327.450459,-14304.2859,7.469e+10,0.9994975554,3.6405
4631.883,-14403736.48,24468220.59,-4598.69829,2626.538206,28392982.29,5295.916249,-14304.2859,7.469e+10,0.9994975554,3.6347
4704.155,-14735441.2,24656943.07,-4580.680374,2596.160826,28724520.34,5265.233491,-14304.2859,7.469e+10,0.9994975554,3.6136
4776.506,-15066212.03,24843702.27,-4562.859647,2566.559298,29055124.98,5235.161391,-14304.2859,7.469e+10,0.9994975554,3.61755
4848.276,-15393060.48,25026873.58,-4545.394766,2537.963146,29381809.2,5205.945688,-14304.2859,7.469e+10,0.9994975554,3.5885
4919.52,-15716281.18,25206698.7,-4528.265606,2510.302935,29704867.51,5177.529356,-14304.2859,7.469e+10,0.9994975554,3.5622
4991.461,-16041433.2,25386308.94,-4511.176829,2483.077926,30029856.16,5149.406992,-14304.2859,7.469e+10,0.9994975554,3.59705
5067.263,-16382714.02,25573467.24,-4493.394579,2455.129169,30370965.5,5120.376361,-14304.2859,7.469e+10,0.9994975554,3.7901
5139.878,-16708389.86,25750795.17,-4476.572696,2429.037561,30696477.7,5093.125423,-14304.2859,7.469e+10,0.9994975554,3.63075
5212.124,-17031205.91,25925364.95,-4460.040331,2403.715479,31019131.56,5066.538054,-14304.2859,7.469e+10,0.9994975554,3.6123
5285.703,-17358758.11,26101298.47,-4443.40943,2378.554704,31346519.18,5039.981135,-14304.2859,7.469e+10,0.9994975554,3.67895
5357.392,-17676726.8,26270953.63,-4427.403485,2354.62776,31664328.11,5014.596047,-14304.2859,7.469e+10,0.9994975554,3.58445
5428.892,-17992721.17,26438473.02,-4411.631488,2331.320521,31980163.71,4989.744258,-14304.2859,7.469e+10,0.9994975554,3.575
5500.47,-18307937.5,26604525.3,-4396.031408,2308.524859,32295221.66,4965.317629,-14304.2859,7.469e+10,0.9994975554,3.5789
5578.186,-18648928.09,26782991.77,-4379.304675,2284.360842,32636040.93,4939.292854,-14304.2859,7.469e+10,0.9994975554,3.8858
5650.111,-18963358.7,26946506.08,-4364.017186,2262.521967,32950313.55,4915.653736,-14304.2859,7.469e+10,0.9994975554,3.59625
5721.782,-19275591.71,27107897.95,-4348.965244,2241.244091,33262389.68,4892.51201,-14304.2859,7.469e+10,0.9994975554,3.58355
5794.294,-19590397.24,27269648.92,-4333.918289,2220.191334,33577037.04,4869.506884,-14304.2859,7.469e+10,0.9994975554,3.6256
5866.532,-19902934.79,27429287.43,-4319.106993,2199.676963,33889417.56,4846.985038,-14304.2859,7.469e+10,0.9994975554,3.6119
5939.109,-20215867.98,27588198.98,-4304.403063,2179.512066,34202193.51,4824.744405,-14304.2859,7.469e+10,0.9994975554,3.62885
6010.333,-20521935.96,27742740.35,-4290.14286,2160.143153,34508107.71,4803.284731,-14304.2859,7.469e+10,0.9994975554,3.5612
6081.827,-20828148.7,27896494.72,-4275.994865,2141.105712,34814166.59,4782.098467,-14304.2859,7.469e+10,0.9994975554,3.5747
6153.083,-21132341.45,28048396.98,-4262.057054,2122.522405,35118206.51,4761.326674,-14304.2859,7.469e+10,0.9994975554,3.5628
6224.572,-21436536.62,28199478.9,-4248.234636,2104.257967,35422248.83,4740.82262,-14304.2859,7.469e+10,0.9994975554,3.57445
6295.896,-21739050.62,28348924.1,-4234.602178,2086.402785,35724610.83,4720.691918,-14304.2859,7.469e+10,0.9994975554,3.5662
6366.929,-22039369.49,28496506.47,-4221.17969,2068.973633,36024778.81,4700.958399,-14304.2859,7.469e+10,0.9994975554,3.55165
6439.404,-22344807.93,28645821.57,-4207.640861,2051.542779,36330063.79,4681.139753,-14304.2859,7.469e+10,0.9994975554,3.62375
6510.753,-22644547.93,28791594.98,-4194.463887,2034.719595,36629653.18,4661.932124,-14304.2859,7.469e+10,0.9994975554,3.56745
6583.439,-22948943.47,28938877.85,-4181.191985,2017.914428,36933895.78,4642.665727,-14304.2859,7.469e+10,0.9994975554,3.6343
6654.563,-23245869.08,29081824.62,-4168.351322,2001.786294,37230672.2,4624.100033,-14304.2859,7.469e+10,0.9994975554,3.5562
6727.124,-23547857.96,29226488.74,-4155.397583,1985.644755,37532509.36,4605.443971,-14304.2859,7.469e+10,0.9994975554,3.62805
6799.122,-23846579.9,29368883.73,-4142.688021,1969.931245,37831081.2,4587.209734,-14304.2859,7.469e+10,0.9994975554,3.5999
6870.928,-24143598.86,29509782.71,-4130.1525,1954.551313,38127950.92,4569.292123,-14304.2859,7.469e+10,0.9994975554,3.5903
6942.215,-24437585.51,29648580.92,-4117.843726,1939.562439,38421789.87,4551.762231,-14304.2859,7.469e+10,0.9994975554,3.56435
7013.81,-24731964.02,29786913.17,-4105.616033,1924.78156,38716020.46,4534.40923,-14304.2859,7.469e+10,0.9994975554,3.57975
7086.249,-25028926.7,29925808.93,-4093.378852,1910.096824,39012833.94,4517.103088,-14304.2859,7.469e+10,0.9994975554,3.62195
7157.501,-25320163.19,30061400.26,-4081.472133,1895.910665,39303924.09,4500.321325,-14304.2859,7.469e+10,0.9994975554,3.5626
7230.886,-25619236.1,30200003.5,-4069.341432,1881.559829,39602846.74,4483.280839,-14304.2859,7.469e+10,0.9994975554,3.66925
7302.615,-25910704.48,30334470.28,-4057.612202,1867.780817,39894168.67,4466.858176,-14304.2859,7.469e+10,0.9994975554,3.58645
7374.368,-26201433.1,30468001.8,-4046.003281,1854.2358,40184751.22,4450.655339,-14304.2859,7.469e+10,0.9994975554,3.58765
7446.351,-26492261.08,30600993.21,-4034.479938,1840.880739,40475433.07,4434.621772,-14304.2859,7.469e+10,0.9994975554,3.59915
7518.899,-26784536.96,30734064.15,-4022.988527,1827.651064,40767562.1,4418.681376,-14304.2859,7.469e+10,0.9994975554,3.6274
7590.521,-27072268.72,30864503.07,-4011.762322,1814.810979,41055149.29,4403.155212,-14304.2859,7.469e+10,0.9994975554,3.5811
7662.082,-27358956.56,30993920.1,-4000.661368,1802.195149,41341693.09,4387.846709,-14304.2859,7.469e+10,0.9994975554,3.57805
7735.996,-27654241.37,31126652.69,-3989.314811,1789.382538,41636829.53,4372.244564,-14304.2859,7.469e+10,0.9994975554,3.6957
7807.514,-27939160,31254188.6,-3978.449674,1777.19074,41921605.01,4357.346524,-14304.2859,7.469e+10,0.9994975554,3.5759
7879.456,-28224987.81,31381608.07,-3967.63101,1765.125344,42207289.2,4342.552626,-14304.2859,7.469e+10,0.9994975554,3.5971
7952.055,-28512640.91,31509318.4,-3956.824461,1753.146682,42494797.77,4327.81505,-14304.2859,7.469e+10,0.9994975554,3.62995
8024.697,-28799683.14,31636241.01,-3946.12122,1741.353949,42781695.78,4313.257036,-14304.2859,7.469e+10,0.9994975554,3.6321
8096.912,-29084271.32,31761575.21,-3935.587906,1729.817149,43066140.97,4298.967264,-14304.2859,7.469e+10,0.9994975554,3.61075
8168.156,-29364291.23,31884414.17,-3925.299101,1718.613327,43346020.19,4285.044317,-14304.2859,7.469e+10,0.9994975554,3.5622
8242.737,-29656645.66,32012158.43,-3914.636086,1707.069341,43638227.72,4270.65117,-14304.2859,7.469e+10,0.9994975554,3.72905
8314.232,-29936160.21,32133814.94,-3904.516057,1696.175998,43917601.83,4257.024625,-14304.2859,7.469e+10,0.9994975554,3.57475
8385.79,-30215200.1,32254804.75,-3894.485276,1685.438521,44196501.52,4243.550232,-14304.2859,7.469e+10,0.9994975554,3.5779
8457.251,-30493148.87,32374869.55,-3884.564563,1674.876912,44474310.64,4230.254664,-14304.2859,7.469e+10,0.9994975554,3.57305
8532.133,-30783646.77,32499878.58,-3874.270726,1663.978558,44764662.58,4216.491231,-14304.2859,7.469e+10,0.9994975554,3.7441
8603.564,-31060041.96,32618371.64,-3864.546848,1653.739727,45040918.9,4203.519647,-14304.2859,7.469e+10,0.9994975554,3.57155
8677.986,-31347275.3,32741054.24,-3854.513475,1643.231645,45328007.92,4190.165196,-14304.2859,7.469e+10,0.9994975554,3.7211
8749.465,-31622450.43,32858154.58,-3844.969243,1633.288789,45603044.79,4177.489766,-14304.2859,7.469e+10,0.9994975554,3.57395
8824.631,-31911087.19,32980534.24,-3835.028798,1622.987593,45891536.52,4164.316824,-14304.2859,7.469e+10,0.9994975554,3.7583
8898.518,-32194087.89,33100082.5,-3825.352,1613.012518,46174395.03,4151.521083,-14304.2859,7.469e+10,0.9994975554,3.69435
8970.99,-32470977.58,33216630.51,-3815.950112,1603.370418,46451145.6,4139.114876,-14304.2859,7.469e+10,0.9994975554,3.6236
9042.698,-32744280.77,33331266.99,-3806.733325,1593.965223,46724311.47,4126.977555,-14304.2859,7.469e+10,0.9994975554,3.5854
9115.247,-33020119.8,33446566.45,-3797.494161,1584.583615,47000011.91,4114.835007,-14304.2859,7.469e+10,0.9994975554,3.62745
9187.983,-33296000.05,33561484.67,-3788.316423,1575.310052,47275753.54,4102.796982,-14304.2859,7.469e+10,0.9994975554,3.6368
9260.52,-33570463.74,33675421.43,-3779.247509,1566.190832,47550079.32,4090.924768,-14304.2859,7.469e+10,0.9994975554,3.62685
9333.583,-33846255.73,33789520.36,-3770.196069,1557.132855,47825732.75,4079.098078,-14304.2859,7.469e+10,0.9994975554,3.65315
9406.697,-34121581.23,33903041.03,-3761.220677,1548.193753,48100919.92,4067.392885,-14304.2859,7.469e+10,0.9994975554,3.6557
9479.376,-34394621.21,34015242.98,-3752.379122,1539.429298,48373822.71,4055.883584,-14304.2859,7.469e+10,0.9994975554,3.63395
9551.334,-34664322.29,34125708.54,-3743.703115,1530.868566,48643388.28,4044.610189,-14304.2859,7.469e+10,0.9994975554,3.5979
9622.951,-34932128.14,34235043.04,-3735.143993,1522.461361,48911059.57,4033.508305,-14304.2859,7.469e+10,0.9994975554,3.58085
9695.869,-35204171.97,34345749.23,-3726.505914,1514.014807,49182966.71,4022.323603,-14304.2859,7.469e+10,0.9994975554,3.6459
9767.969,-35472547.39,34454611.94,-3718.039557,1505.773169,49451207.29,4011.380184,-14304.2859,7.469e+10,0.9994975554,3.605
9839.552,-35738397.13,34562110.01,-3709.70644,1497.696774,49716923.46,4000.627138,-14304.2859,7.469e+10,0.9994975554,3.57915
9911.081,-36003453.04,34668953.22,-3701.450767,1489.729983,49981846.19,3989.991629,-14304.2859,7.469e+10,0.9994975554,3.57645
9983.548,-36271385.18,34776620.16,-3693.158332,1481.762117,50249643.71,3979.326255,-14304.2859,7.469e+10,0.9994975554,3.62335
10055.654,-36537388.7,34883181.31,-3684.97762,1473.935176,50515513.57,3968.821609,-14304.2859,7.469e+10,0.9994975554,3.6053
10126.746,-36799076.44,34987694.89,-3676.97974,1466.315203,50777069.83,3958.567958,-14304.2859,7.469e+10,0.9994975554,3.5546
10198.397,-37062248.94,35092485.55,-3668.986124,1458.730759,51040110.1,3948.335675,-14304.2859,7.469e+10,0.9994975554,3.58255
10270.711,-37327278.33,35197698.32,-3660.98594,1451.171397,51305006.33,3938.110775,-14304.2859,7.469e+10,0.9994975554,3.6157
10342.209,-37588750.7,35301189.74,-3653.141673,1443.7896,51566347.32,3928.100366,-14304.2859,7.469e+10,0.9994975554,3.5749
10415.121,-37854818.95,35406187.7,-3645.208552,1436.354465,51832281.88,3917.991774,-14304.2859,7.469e+10,0.9994975554,3.6456
10486.646,-38115266.1,35508664.78,-3637.490478,1429.149934,52092598.17,3908.171761,-14304.2859,7.469e+10,0.9994975554,3.57625
10561.829,-38388440.68,35615830.8,-3629.445196,1421.6703,52365635.5,3897.950599,-14304.2859,7.469e+10,0.9994975554,3.75915
10633.296,-38647554.86,35717181.86,-3621.860829,1414.647371,52624619.49,3888.329082,-14304.2859,7.469e+10,0.9994975554,3.57335
10708.22,-38918623.32,35822899.86,-3613.974878,1407.37404,52895551.75,3878.339349,-14304.2859,7.469e+10,0.9994975554,3.7462
10788.29,-39207659.31,35935280.4,-3605.620121,1399.700238,53184442.52,3867.771608,-14304.2859,7.469e+10,0.9994975554,4.0035
10862.944,-39476544.6,36039509.39,-3597.897295,1392.635903,53453192.71,3858.017587,-14304.2859,7.469e+10,0.9994975554,3.7327
10936.141,-39739624.65,36141195.21,-3590.386903,1385.792503,53716140.58,3848.545047,-14304.2859,7.469e+10,0.9994975554,3.65985
11008.21,-39998115.56,36240827.47,-3583.051136,1379.133423,53974501.61,3839.305203,-14304.2859,7.469e+10,0.9994975554,3.60345
11081.017,-40258718.76,36340995.51,-3575.698783,1372.48415,54234973.87,3830.056727,-14304.2859,7.469e+10,0.9994975554,3.64035
11152.668,-40514663.63,36439103.19,-3568.519846,1366.015609,54490790.14,3821.038149,-14304.2859,7.469e+10,0.9994975554,3.58255
11224.518,-40770804.83,36537020.59,-3561.376687,1359.602627,54746802.64,3812.075972,-14304.2859,7.469e+10,0.9994975554,3.5925
11295.891,-41024739.37,36633834.3,-3554.335471,1353.303825,55000609.6,3803.252803,-14304.2859,7.469e+10,0.9994975554,3.56865
11372.627,-41297196.3,36737424.08,-3546.824987,1346.609907,55272929.63,3793.853678,-14304.2859,7.469e+10,0.9994975554,3.8368
11445.678,-41556036,36835564.79,-3539.731993,1340.311361,55531639.28,3784.988392,-14304.2859,7.469e+10,0.9994975554,3.65255
11518.23,-41812596.73,36932582.25,-3532.74158,1334.125918,55788071.1,3776.262045,-14304.2859,7.469e+10,0.9994975554,3.6276
11590.541,-42067802.5,37028833.4,-3525.827369,1328.029298,56043148.65,3767.641232,-14304.2859,7.469e+10,0.9994975554,3.61555
