t,x,y,vx,vy,r,v,energy,h,e,dt_eff
0,7000000,0,0,10670,7000000,10670,-14304.28571,7.469e+10,0.9994975554,0
21.653448,6998093.419,231021.3158,-176.0675587,10667.09462,7001905.623,10668.54757,-14304.28571,7.469e+10,0.9994975554,1.0826724
26.0420304,6997242.499,277831.9824,-211.7175103,10665.79844,7002756.115,10667.89954,-14304.28571,7.469e+10,0.9994975554,0.2125008
30.3630336,6996251.864,323915.7552,-246.8000318,10664.28983,7003746.252,10667.14525,-14304.28571,7.469e+10,0.9994975554,0.2125392
34.6399248,6995122.108,369522.1648,-281.5033829,10662.56987,7004875.441,10666.28522,-14304.28571,7.469e+10,0.9994975554,0.2152415999
39.0065136,6993815.586,416076.9671,-316.9099283,10660.5815,7006181.306,10665.2909,-14304.28571,7.469e+10,0.9994975554,0.2174832001
43.3109088,6992376.413,461959.6926,-351.7848217,10658.39211,7007619.757,10664.19594,-14304.28571,7.469e+10,0.9994975554,0.2196336
47.611224,6990788.765,507789.0284,-386.5965671,10655.97789,7009206.607,10662.9884,-14304.28571,7.469e+10,0.9994975554,0.211416
51.9594672,6989031.281,554118.088,-421.7627118,10653.30668,7010963.208,10661.65217,-14304.28571,7.469e+10,0.9994975554,0.2116464
56.2780608,6987134.508,600119.2501,-456.6526592,10650.42527,7012859.028,10660.21061,-14304.28571,7.469e+10,0.9994975554,0.2132976
60.5969808,6985086.983,646110.9533,-491.5059947,10647.3166,7014905.524,10658.65512,-14304.28571,7.469e+10,0.9994975554,0.2118336
64.960992,6982865.278,692568.6905,-526.6803485,10643.94553,7017126.113,10656.96808,-14304.28571,7.469e+10,0.9994975554,0.217296
69.2825232,6980514.03,738559.2106,-561.4668967,10640.38023,7019476.179,10655.18355,-14304.28571,7.469e+10,0.9994975554,0.2151023999
73.5851808,6978023.805,784333.0854,-596.0537261,10636.60678,7021965.153,10653.29451,-14304.28571,7.469e+10,0.9994975554,0.2173776001
77.9492256,6975346.147,830742.9501,-631.0823635,10632.55231,7024641.466,10651.26441,-14304.28571,7.469e+10,0.9994975554,0.2227871999
82.2961632,6972527.135,876952.803,-665.9190488,10628.28713,7027459.062,10649.12839,-14304.28571,7.469e+10,0.9994975554,0.2156544001
86.6202672,6969572.811,922901.0458,-700.5157588,10623.8209,7030411.901,10646.89123,-14304.28571,7.469e+10,0.9994975554,0.2120063999
91.0746,6966373.222,970212.4035,-736.0919832,10618.98811,7033609.882,10644.46992,-14304.28571,7.469e+10,0.9994975554,0.217632
95.6043744,6962957.078,1018302.44,-772.2026273,10613.83308,7037024.31,10641.88656,-14304.28571,7.469e+10,0.9994975554,0.2238048
100.1499984,6959364.712,1066536.717,-808.3673512,10608.41752,7040614.871,10639.17196,-14304.28571,7.469e+10,0.9994975554,0.2222928
104.7057792,6955599.547,1114853.518,-844.5370165,10602.74739,7044378.144,10636.32902,-14304.28571,7.469e+10,0.9994975554,0.2262384
109.1482848,6951769.484,1161943.569,-879.7311549,10596.98573,7048206.283,10633.4394,-14304.28571,7.469e+10,0.9994975554,0.2124336
113.4265008,6947933.435,1207267.508,-913.5498747,10591.22135,7052040.404,10630.54763,-14304.28571,7.469e+10,0.9994975554,0.2136815999
117.7186704,6943939.644,1252714.037,-947.4033855,10585.22658,7056032.188,10627.53946,-14304.28571,7.469e+10,0.9994975554,0.2140128
122.0267904,6939785.064,1298303.121,-981.3040283,10578.99765,7060184.681,10624.41288,-14304.28571,7.469e+10,0.9994975554,0.2142047999
126.3123456,6935507.514,1343626.348,-1014.946332,10572.59202,7064460.082,10621.19664,-14304.28571,7.469e+10,0.9994975554,0.2129472001
130.6584144,6931022.503,1389561.061,-1048.978791,10565.88402,7068942.84,10617.82754,-14304.28571,7.469e+10,0.9994975554,0.2155248
134.938656,6926461.043,1434771.088,-1082.409705,10559.07041,7073502.008,10614.4043,-14304.28571,7.469e+10,0.9994975554,0.2196
139.2730704,6921696.223,1480523.146,-1116.17415,10551.96241,7078264.434,10610.83198,-14304.28571,7.469e+10,0.9994975554,0.2143488
143.5914192,6916803.726,1526074.537,-1149.721294,10544.67388,7083154.472,10607.16769,-14304.28571,7.469e+10,0.9994975554,0.2126784
147.9548976,6911713.16,1572069.548,-1183.523079,10537.10097,7088242.481,10603.35907,-14304.28571,7.469e+10,0.9994975554,0.2148192
152.3694624,6906413.122,1618568.963,-1217.619899,10529.22797,7093539.856,10599.39809,-14304.28571,7.469e+10,0.9994975554,0.2110368001
156.7055616,6901060.974,1664207.602,-1251.009589,10521.2895,7098889.315,10595.40267,-14304.28571,7.469e+10,0.9994975554,0.2118191999
160.9641456,6895663.796,1708996.446,-1283.70254,10513.29634,7104283.781,10591.37819,-14304.28571,7.469e+10,0.9994975554,0.2106911999
165.2460624,6890096.892,1753995.952,-1316.472584,10505.06452,7109847.888,10587.23196,-14304.28571,7.469e+10,0.9994975554,0.2161248
169.5198096,6884400.915,1798874.041,-1349.075859,10496.65517,7115541.003,10582.99464,-14304.28571,7.469e+10,0.9994975554,0.2128272001
173.8467312,6878492.35,1844273.473,-1381.976441,10487.94617,7121446.599,10578.60453,-14304.28571,7.469e+10,0.9994975554,0.2289216
178.2166224,6872380.869,1890085.08,-1415.090834,10478.95326,7127555.01,10574.06939,-14304.28571,7.469e+10,0.9994975554,0.2110272
182.4467088,6866327.309,1934393.214,-1447.035587,10470.06077,7133605.528,10569.58298,-14304.28571,7.469e+10,0.9994975554,0.2102064
186.6846912,6860127.176,1978745.946,-1478.929183,10460.96858,7139802.546,10564.99386,-14304.28571,7.469e+10,0.9994975554,0.2097936
191.0616624,6853582.073,2024512.407,-1511.750235,10451.38763,7146344.36,10560.15588,-14304.28571,7.469e+10,0.9994975554,0.2124191999
195.33,6847061.315,2069102.188,-1543.638654,10441.85974,7152861.841,10555.34249,-14304.28571,7.469e+10,0.9994975554,0.2118480001
199.60728,6840390.612,2113744.203,-1575.474968,10432.1307,7159529.194,10550.42522,-14304.28571,7.469e+10,0.9994975554,0.2165760002
204.0006048,6833397.437,2159553.649,-1608.049049,10421.95079,7166518.855,10545.27762,-14304.28571,7.469e+10,0.9994975554,0.2305104001
208.3673568,6826305.028,2205041.292,-1640.297586,10411.64668,7173607.7,10540.06465,-14304.28571,7.469e+10,0.9994975554,0.2130383999
212.6378208,6819233.08,2249482.022,-1671.709196,10401.39256,7180676.094,10534.87441,-14304.28571,7.469e+10,0.9994975554,0.2142144
216.9829248,6811900.128,2294654.165,-1703.540215,10390.78128,7188005.362,10529.5007,-14304.28571,7.469e+10,0.9994975554,0.2142624
221.2261872,6804605.835,2338722.687,-1734.497214,10380.2474,7195295.99,10524.16346,-14304.28571,7.469e+10,0.9994975554,0.2105855999
225.4694016,6797180.54,2382745.658,-1765.325701,10369.54623,7202717.554,10518.7387,-14304.28571,7.469e+10,0.9994975554,0.2103408
229.7033376,6789641.372,2426626.757,-1795.957371,10358.70349,7210252.934,10513.23932,-14304.28571,7.469e+10,0.9994975554,0.2091407999
234.0431568,6781779.356,2471557.236,-1827.219233,10347.42055,7218111,10507.51361,-14304.28571,7.469e+10,0.9994975554,0.2157744
238.3479168,6773847.119,2516076.009,-1858.091011,10336.0617,7226039.252,10501.74622,-14304.28571,7.469e+10,0.9994975554,0.2168304
242.6780256,6765734.402,2560807.244,-1889.004743,10324.47016,7234147.893,10495.85743,-14304.28571,7.469e+10,0.9994975554,0.2214527999
247.0326192,6757441.124,2605740.434,-1919.950216,10312.64747,7242437.004,10489.84779,-14304.28571,7.469e+10,0.9994975554,0.2165376
251.56872,6748659.215,2652491.382,-1952.031273,10300.15765,7251214.5,10483.4953,-14304.28571,7.469e+10,0.9994975554,0.2267039999
255.9368976,6740065.196,2697457.727,-1982.774302,10287.9643,7259804.201,10477.28989,-14304.28571,7.469e+10,0.9994975554,0.2192927999
260.2747104,6731398.344,2742058.44,-2013.156063,10275.6968,7268466.699,10471.04303,-14304.28571,7.469e+10,0.9994975554,0.2124192001
264.576264,6722674.11,2786233.459,-2043.137228,10263.37757,7277186.549,10464.76607,-14304.28571,7.469e+10,0.9994975554,0.2282159999
269.0358096,6713493.627,2831974.685,-2074.063935,10250.44593,7286362.419,10458.17302,-14304.28571,7.469e+10,0.9994975554,0.2193168001
273.481896,6704203.911,2877520.096,-2104.73812,10237.39353,7295647.468,10451.51419,-14304.28571,7.469e+10,0.9994975554,0.2174639999
277.7403504,6695178.691,2921088.688,-2133.967465,10224.74454,7304668.153,10445.05711,-14304.28571,7.469e+10,0.9994975554,0.2106671999
282.16932,6685660.383,2966344.36,-2164.209827,10211.43828,7314181.678,10438.2602,-14304.28571,7.469e+10,0.9994975554,0.212376
286.4803872,6676267.156,3010338.376,-2193.491768,10198.34077,7323570.186,10431.56559,-14304.28571,7.469e+10,0.9994975554,0.2126015999
290.7645072,6666807.915,3054001.161,-2222.437689,10185.18511,7333024.674,10424.83693,-14304.28571,7.469e+10,0.9994975554,0.2136815999
295.0733328,6657169.376,3097858.592,-2251.39558,10171.81493,7342658.371,10417.9941,-14304.28571,7.469e+10,0.9994975554,0.2314128
299.5442544,6647036.7,3143304.697,-2281.27741,10157.79708,7352785.956,10410.81496,-14304.28571,7.469e+10,0.9994975554,0.2267663999
304.1097456,6636552.225,3189647.07,-2311.61622,10143.33314,7363265.163,10403.40217,-14304.28571,7.469e+10,0.9994975554,0.2187216001
308.5859232,6626138.77,3235018.422,-2341.188614,10129.00786,7373673.385,10396.05523,-14304.28571,7.469e+10,0.9994975554,0.2213952
313.12992,6615432.543,3281011.289,-2371.032836,10114.32194,7384374.233,10388.51794,-14304.28571,7.469e+10,0.9994975554,0.2214
317.602368,6604762.86,3326214.485,-2400.232709,10099.72842,7395038.555,10381.02265,-14304.28571,7.469e+10,0.9994975554,0.220896
322.2058416,6593644.62,3372673.473,-2430.106259,10084.56611,7406151.209,10373.22949,-14304.28571,7.469e+10,0.9994975554,0.2214335999
326.7863952,6582445.661,3418831.548,-2459.64705,10069.33965,7417344.541,10365.39746,-14304.28571,7.469e+10,0.9994975554,0.2290752
331.3688448,6571107.092,3464938.626,-2489.015429,10053.97011,7428677.413,10357.48583,-14304.28571,7.469e+10,0.9994975554,0.2323008001
336.0077184,6559492.272,3511541.371,-2518.556385,10038.27466,7440286.397,10349.4002,-14304.28571,7.469e+10,0.9994975554,0.2230224
340.5559152,6547971.868,3557162.175,-2547.334387,10022.7551,7451801.012,10341.39896,-14304.28571,7.469e+10,0.9994975554,0.2300112001
345.1503648,6536201.845,3603174.957,-2576.217736,10006.94873,7463565.122,10333.24348,-14304.28571,7.469e+10,0.9994975554,0.2299248
349.74156,6524308.03,3649082.309,-2604.891798,9991.026653,7475452.961,10325.02178,-14304.28571,7.469e+10,0.9994975554,0.233016
354.3147312,6512330.465,3694736.484,-2633.264925,9975.043552,7487424.508,10316.76199,-14304.28571,7.469e+10,0.9994975554,0.2281632
358.9441776,6500073.792,3740877.725,-2661.795031,9958.740829,7499675.023,10308.33021,-14304.28571,7.469e+10,0.9994975554,0.2229935999
363.4856784,6487922.051,3786068.814,-2689.594664,9942.63017,7511820.658,10299.99098,-14304.28571,7.469e+10,0.9994975554,0.2242224001
368.0696352,6475529.115,3831607.91,-2717.464297,9926.253308,7524207.367,10291.50703,-14304.28571,7.469e+10,0.9994975554,0.2329392001
372.550584,6463291.605,3876050.869,-2744.522764,9910.13466,7536438.729,10283.15001,-14304.28571,7.469e+10,0.9994975554,0.2257248
377.113968,6450704.776,3921236.958,-2771.890674,9893.610398,7549019.233,10274.57564,-14304.28571,7.469e+10,0.9994975554,0.221664
381.79272,6437670.529,3967486.856,-2799.752687,9876.556703,7562046.931,10265.71904,-14304.28571,7.469e+10,0.9994975554,0.245568
386.414952,6424666.188,4013099.445,-2827.081063,9859.600592,7575044.738,10256.90554,-14304.28571,7.469e+10,0.9994975554,0.2350464
391.111944,6411322.585,4059369.234,-2854.650428,9842.262504,7588381.637,10247.88565,-14304.28571,7.469e+10,0.9994975554,0.2283119999
395.864544,6397689.693,4106103.669,-2882.339597,9824.611355,7602007.679,10238.69473,-14304.28571,7.469e+10,0.9994975554,0.2434128
400.427688,6384476.88,4150895.928,-2908.729147,9807.564379,7615213.854,10229.81057,-14304.28571,7.469e+10,0.9994975554,0.2205168001
405.019992,6371058.501,4195895.669,-2935.093415,9790.31259,7628625.491,10220.81181,-14304.28571,7.469e+10,0.9994975554,0.2218368
409.640856,6357434.92,4241095.082,-2961.425094,9772.858925,7642242.227,10211.69967,-14304.28571,7.469e+10,0.9994975554,0.2319888
414.1065648,6344153.587,4284699.997,-2986.685148,9755.903495,7655516.886,10202.83986,-14304.28571,7.469e+10,0.9994975554,0.2111232
418.3879248,6331314.981,4326433.592,-3010.729316,9739.569068,7668349.041,10194.29726,-14304.28571,7.469e+10,0.9994975554,0.2118191999
422.9786832,6317434.629,4371105.238,-3036.322709,9721.970627,7682222.419,10185.08559,-14304.28571,7.469e+10,0.9994975554,0.2388528
427.640424,6303219.89,4416384.724,-3062.112316,9704.013983,7696430.017,10175.67783,-14304.28571,7.469e+10,0.9994975554,0.23424
432.194304,6289218.404,4460535.544,-3087.111099,9686.391424,7710424.468,10166.43663,-14304.28571,7.469e+10,0.9994975554,0.2106720001
436.4682576,6275974.409,4501899.26,-3110.398724,9669.78103,7723661.808,10157.71851,-14304.28571,7.469e+10,0.9994975554,0.2091504
440.9649168,6261933.259,4545341.543,-3134.717486,9652.232926,7737695.903,10148.50009,-14304.28571,7.469e+10,0.9994975554,0.2236896
445.5042912,6247648.241,4589116.297,-3159.077734,9634.445245,7751973.744,10139.14727,-14304.28571,7.469e+10,0.9994975554,0.2475216
450.120528,6233008.386,4633549.286,-3183.655311,9616.283581,7766606.243,10129.58889,-14304.28571,7.469e+10,0.9994975554,0.224328
454.677,6218447.248,4677324.639,-3207.721882,9598.287326,7781160.065,10120.10866,-14304.28571,7.469e+10,0.9994975554,0.209172
459.285096,6203610.052,4721512.403,-3231.86651,9580.019003,7795989.806,10110.47601,-14304.28571,7.469e+10,0.9994975554,0.2249904
464.08332,6188042.931,4767433.703,-3256.799608,9560.926523,7811549.106,10100.39899,-14304.28571,7.469e+10,0.9994975554,0.2308512001
468.82152,6172553.643,4812690.484,-3281.213137,9542.004843,7827030.611,10090.40218,-14304.28571,7.469e+10,0.9994975554,0.2359872001
473.46696,6157255.757,4856974.083,-3304.948708,9523.390305,7842320.811,10080.55796,-14304.28571,7.469e+10,0.9994975554,0.2281104
477.874528,6142639.679,4898910.048,-3327.28612,9505.673074,7856929.545,10071.17935,-14304.28571,7.469e+10,0.9994975554,0.2116640001
482.469792,6127296.773,4942548.577,-3350.385631,9487.145543,7872264.742,10061.36245,-14304.28571,7.469e+10,0.9994975554,0.22272
487.1227776,6111653.441,4986648.374,-3373.578962,9468.3294,7887900.214,10051.38282,-14304.28571,7.469e+10,0.9994975554,0.2184144
491.7970752,6095830.261,5030861.88,-3396.680046,9449.372665,7903715.444,10041.31859,-14304.28571,7.469e+10,0.9994975554,0.2332367999
496.3740672,6080232.285,5074069.006,-3419.107926,9430.759839,7919305.583,10031.42712,-14304.28571,7.469e+10,0.9994975554,0.2218128
500.9283504,6064610.239,5116977.093,-3441.236132,9412.1916,7934919.78,10021.54962,-14304.28571,7.469e+10,0.9994975554,0.2234015999
505.6218576,6048405.638,5161108.281,-3463.844682,9393.007998,7951116.239,10011.33454,-14304.28571,7.469e+10,0.9994975554,0.2297904
510.0158352,6033139.412,5202341.414,-3484.830486,9375.006639,7966374.794,10001.7395,-14304.28571,7.469e+10,0.9994975554,0.2191248
514.822032,6016335.864,5247352.135,-3507.586414,9355.272083,7983169.9,9991.210046,-14304.28571,7.469e+10,0.9994975554,0.239808
519.4870128,5999921.908,5290949.538,-3529.475844,9336.075081,7999575.608,9980.956751,-14304.28571,7.469e+10,0.9994975554,0.2382672001
524.1943104,5983256.013,5334851.55,-3551.366896,9316.663818,8016233.129,9970.578294,-14304.28571,7.469e+10,0.9994975554,0.2321136001
528.8924448,5966520.276,5378576.904,-3573.018752,9297.252217,8032960.458,9960.188843,-14304.28571,7.469e+10,0.9994975554,0.2184672001
533.6183712,5949583.376,5422468.822,-3594.601256,9277.689424,8049888.848,9949.707495,-14304.28571,7.469e+10,0.9994975554,0.2221728
538.255704,5932865.28,5465447.981,-3615.587393,9258.459882,8066598.544,9939.393924,-14304.28571,7.469e+10,0.9994975554,0.20856
542.8475856,5916215.578,5507917.956,-3636.181369,9239.388023,8083239.881,9929.154344,-14304.28571,7.469e+10,0.9994975554,0.2399712
547.4849808,5899305.305,5550719.932,-3656.791873,9220.097901,8100141.656,9918.786826,-14304.28571,7.469e+10,0.9994975554,0.2372256001
551.7966528,5883497.411,5590435.26,-3675.786265,9202.137958,8115941.608,9909.124465,-14304.28571,7.469e+10,0.9994975554,0.2102256
556.0755696,5867728.984,5629772.27,-3694.476502,9184.292386,8131702.113,9899.514294,-14304.28571,7.469e+10,0.9994975554,0.2091072
560.3054304,5852063.062,5668583.203,-3712.796554,9166.631194,8147360.163,9889.994221,-14304.28571,7.469e+10,0.9994975554,0.2173248001
564.8778816,5835041.534,5710453.489,-3732.426768,9147.518528,8164373.139,9879.681412,-14304.28571,7.469e+10,0.9994975554,0.2351712
569.1727488,5818971.956,5749702.282,-3750.701657,9129.547716,8180434.643,9869.974894,-14304.28571,7.469e+10,0.9994975554,0.2118336
573.479208,5802780.54,5788979.477,-3768.867422,9111.511883,8196617.923,9860.22365,-14304.28571,7.469e+10,0.9994975554,0.2154320001
577.862688,5786219.554,5828879.341,-3787.195845,9093.137908,8213170.588,9850.27966,-14304.28571,7.469e+10,0.9994975554,0.2127359999
582.1499808,5769944.592,5867825.738,-3804.964464,9075.15328,8229437.374,9840.536653,-14304.28571,7.469e+10,0.9994975554,0.2104464001
586.6506528,5752778.031,5908627.516,-3823.450499,9056.260279,8246595.309,9830.291143,-14304.28571,7.469e+10,0.9994975554,0.2419583999
591.3919104,5734604.263,5951518.37,-3842.740668,9036.344261,8264759.946,9819.479286,-14304.28571,7.469e+10,0.9994975554,0.2286912
595.9932096,5716879.939,5993052.804,-3861.281759,9017.004917,8282475.364,9808.969085,-14304.28571,7.469e+10,0.9994975554,0.2249087999
600.6832656,5698726.347,6035296.817,-3879.99934,8997.282763,8300619.835,9798.239229,-14304.28571,7.469e+10,0.9994975554,0.2237088002
605.4732794,5680095.687,6078345.667,-3898.928074,8977.131769,8319241.135,9787.263914,-14304.28571,7.469e+10,0.9994975554,0.238115077
610.1502942,5661817.478,6120285.82,-3917.22818,8957.449461,8337510.16,9776.531976,-14304.28571,7.469e+10,0.9994975554,0.2310078462
614.8504043,5643363.208,6162340.326,-3935.438415,8937.664881,8355955.157,9765.732387,-14304.28571,7.469e+10,0.9994975554,0.2409064617
619.5573268,5624796.839,6204362.584,-3953.494988,8917.848067,8374512.198,9754.903217,-14304.28571,7.469e+10,0.9994975554,0.2316392308
624.4184151,5605533.605,6247663.283,-3971.954933,8897.380074,8393765.752,9743.705566,-14304.28571,7.469e+10,0.9994975554,0.2341066154
629.1070274,5586869.261,6289333.367,-3989.579952,8877.637791,8412420.719,9732.892732,-14304.28571,7.469e+10,0.9994975554,0.2346466153
633.761304,5568260.275,6330606.744,-4006.90218,8858.041041,8431020.355,9722.147713,-14304.28571,7.469e+10,0.9994975554,0.232632
638.5956332,5548846.466,6373380.235,-4024.712382,8837.688691,8450424.41,9710.975809,-14304.28571,7.469e+10,0.9994975554,0.2477727692
643.5217417,5528975.984,6416864.575,-4042.670982,8816.954156,8470284.907,9699.580881,-14304.28571,7.469e+10,0.9994975554,0.2437726154
648.250692,5509817.985,6458512.46,-4059.731806,8797.054944,8489433.281,9688.632412,-14304.28571,7.469e+10,0.9994975554,0.2325032307
653.007012,5490468.142,6500306.484,-4076.715622,8777.047378,8508773.402,9677.61184,-14304.28571,7.469e+10,0.9994975554,0.2339742856
657.748374,5471099.166,6541874.376,-4093.471729,8757.110909,8528132.646,9666.617933,-14304.28571,7.469e+10,0.9994975554,0.2387340001
662.5807094,5451277.233,6584142.599,-4110.371449,8736.801709,8547944.62,9655.405613,-14304.28571,7.469e+10,0.9994975554,0.2395730769
667.308318,5431806.264,6625399.832,-4126.732289,8716.943551,8567405.805,9644.429701,-14304.28571,7.469e+10,0.9994975554,0.2342519999
672.0933452,5412020.463,6667062.581,-4143.119148,8696.856503,8587181.665,9633.314555,-14304.28571,7.469e+10,0.9994975554,0.2362998461
676.9322437,5391932.59,6709096.667,-4159.515025,8676.557212,8607259.445,9622.06892,-14304.28571,7.469e+10,0.9994975554,0.2457083077
681.6557068,5372247.809,6750033.296,-4175.350754,8656.756918,8626934.335,9611.087048,-14304.28571,7.469e+10,0.9994975554,0.2374504615
686.3693036,5352529.971,6790791.221,-4190.988112,8637.013707,8646642.267,9600.124329,-14304.28571,7.469e+10,0.9994975554,0.2347264285
691.1115928,5332618.116,6831703.372,-4206.555189,8617.167353,8666544.117,9589.091706,-14304.28571,7.469e+10,0.9994975554,0.2408524616
695.998518,5312022.148,6873764.89,-4222.424647,8596.73481,8687129.737,9577.719942,-14304.28571,7.469e+10,0.9994975554,0.2462275385
