t,x,y,vx,vy,r,v,energy,h,e,dt_eff
0,7000000,0,0,-7600,7000000,7600,-28058754.29,5.32e+10,0.0144233172,0
901.424,3955830.505,-5828209.591,-6198.919152,-4315.503338,7043906.73,7553.156143,-28058754.52,5.319999981e+10,0.01442327404,45.0712
975.285,3486158.502,-6128523.5,-6512.072108,-3812.39489,7050680.917,7545.955071,-28058754.52,5.319999981e+10,0.01442327404,3.69305
1045.346,3020624.29,-6378295.941,-6771.02814,-3314.671918,7057395.427,7538.824311,-28058754.52,5.319999981e+10,0.01442327404,3.50305
1115.296,2539060.675,-6592274.765,-6991.30165,-2800.806787,7064341.136,7531.455199,-28058754.52,5.319999981e+10,0.01442327404,3.4975
1185.687,2040293.478,-6770805.675,-7173.334093,-2269.648301,7071534.979,7523.830502,-28058754.52,5.319999981e+10,0.01442327404,3.51955
1255.596,1533661.323,-6910708.411,-7313.99629,-1731.21933,7078842.263,7516.09354,-28058754.52,5.319999981e+10,0.01442327404,3.49545
1326.1,1014197.98,-7013382.977,-7414.814671,-1180.306844,7086334.618,7508.168941,-28058754.52,5.319999981e+10,0.01442327404,3.5252
1398.927,471725.2388,-7078457.815,-7475.360492,-606.2340641,7094158.847,7499.902281,-28058754.52,5.319999981e+10,0.01442327404,3.64135
1471.121,-68798.78522,-7101621.726,-7491.590365,-35.48162215,7101954.971,7491.674388,-28058754.52,5.319999981e+10,0.01442327404,3.6097
1542.841,-605387.5309,-7083873.201,-7464.732519,529.8773847,7109694.339,7483.515325,-28058754.52,5.319999981e+10,0.01442327404,3.586
1612.912,-1126329.173,-7027519.669,-7397.531303,1077.574035,7117208.027,7475.602664,-28058754.52,5.319999981e+10,0.01442327404,3.50355
1689.978,-1692113.235,-6921533.715,-7277.620613,1671.107649,7125368.493,7467.018318,-28058754.52,5.319999981e+10,0.01442327404,3.8533
1770.602,-2272116.854,-6762222.015,-7101.775075,2278.148696,7133734.056,7458.228389,-28058754.52,5.319999981e+10,0.01442327404,4.0312
1849.806,-2826150.404,-6558743.062,-6880.371619,2856.68101,7141725.048,7449.841609,-28058754.52,5.319999981e+10,0.01442327404,3.9602
1930.729,-3372159.177,-6304389.497,-6606.26026,3425.568428,7149600.3,7441.585427,-28058754.52,5.319999981e+10,0.01442327404,4.04615
2010.541,-3887114.59,-6009441.333,-6290.654179,3960.954124,7157027.664,7433.807072,-28058754.52,5.319999981e+10,0.01442327404,3.9906
2092.074,-4385369.963,-5665200.336,-5924.355645,4477.920536,7164214.162,7426.288585,-28058754.52,5.319999981e+10,0.01442327404,4.07665
2177.379,-4872817.41,-5261406.861,-5496.69643,4982.670486,7171244.778,7418.940411,-28058754.52,5.319999981e+10,0.01442327404,4.26525
2261.023,-5313610.717,-4825299.854,-5036.621558,5438.258856,7177602.492,7412.301674,-28058754.52,5.319999981e+10,0.01442327404,4.1822
2341.309,-5699079.732,-4372448.982,-4560.405867,5836.005001,7183162.249,7406.500931,-28058754.52,5.319999981e+10,0.01442327404,4.0143
2421.833,-6046032.075,-3887831.449,-4052.133355,6193.481584,7188166.472,7401.283595,-28058754.52,5.319999981e+10,0.01442327404,4.0262
2503.209,-6353932.383,-3370629.77,-3510.905423,6510.304954,7192607.439,7396.656507,-28058754.52,5.319999981e+10,0.01442327404,4.0688
2580.496,-6604685.191,-2857232.152,-2974.646029,6768.035756,7196224.152,7392.890301,-28058754.52,5.319999981e+10,0.01442327404,3.86435
2654.991,-6806479.886,-2345074.07,-2440.454574,6975.257969,7199134.728,7389.860774,-28058754.52,5.319999981e+10,0.01442327404,3.72475
2725.859,-6961031.434,-1844907.431,-1919.350601,7133.853092,7201363.903,7387.541314,-28058754.52,5.319999981e+10,0.01442327404,3.5434
2801.261,-7084505.507,-1301951.356,-1354.151175,7260.487101,7203144.841,7385.688753,-28058754.52,5.319999981e+10,0.01442327404,3.7701
2879.229,-7167024.448,-732259.8148,-761.4930957,7345.082942,7204335.075,7384.450904,-28058754.52,5.319999981e+10,0.01442327404,3.8984
2957.419,-7203163.248,-156186.8301,-162.4107864,7382.122486,7204856.355,7383.908833,-28058754.52,5.319999981e+10,0.01442327404,3.9095
2981.3968,-7204850.535,20849.99698,21.68018466,7383.851686,7204880.704,7383.883514,-28058754.52,5.319999981e+10,0.01442327404,3.9963
3063.4702,-7177228.186,626068.1954,651.0478042,7355.541459,7204482.342,7384.297759,-28058754.52,5.319999981e+10,0.01442327404,4.3542
3149.9161,-7092454.052,1258588.629,1309.027976,7268.636737,7203259.666,7385.569325,-28058754.52,5.319999981e+10,0.01442327404,4.24785
3236.2282,-6951457.474,1880131.914,1956.032781,7124.031232,7201226.078,7387.684701,-28058754.52,5.319999981e+10,0.01442327404,4.4737
3324.2715,-6750732.706,2498715.132,2600.633876,6918.027809,7198331.013,7390.697215,-28058754.52,5.319999981e+10,0.01442327404,4.23525
3410.1684,-6501032.286,3082322.601,3209.651767,6661.529388,7194729.557,7394.446447,-28058754.52,5.319999981e+10,0.01442327404,4.4339
3498.2602,-6191687.344,3655538.169,3808.908725,6343.406312,7190267.83,7399.093817,-28058754.52,5.319999981e+10,0.01442327404,4.3362
3582.5116,-5847626.433,4175389.626,4353.575646,5989.118083,7185305.382,7404.266089,-28058754.52,5.319999981e+10,0.01442327404,3.9241
3660.5118,-5489301.687,4628383.862,4829.375237,5619.62143,7180137.198,7409.656551,-28058754.52,5.319999981e+10,0.01442327404,3.8438
3737.9857,-5097812.369,5048328.974,5271.702576,5215.317675,7174490.67,7415.550317,-28058754.52,5.319999981e+10,0.01442327404,3.94345
3816.5223,-4667277.566,5440659.177,5686.313911,4769.954975,7168280.976,7422.037211,-28058754.52,5.319999981e+10,0.01442327404,3.88805
3894.9487,-4206278.374,5796222.346,6063.555759,4292.222439,7161631.884,7428.989293,-28058754.52,5.319999981e+10,0.01442327404,3.99895
3974.7129,-3708655.268,6118177.51,6406.780998,3775.540023,7154454.552,7436.500872,-28058754.52,5.319999981e+10,0.01442327404,3.96315
4054.1601,-3187493.454,6396765.131,6705.555237,3233.304799,7146937.712,7444.375794,-28058754.52,5.319999981e+10,0.01442327404,3.99385
4134.1439,-2640645.244,6632724.412,6960.586635,2663.116875,7139050.387,7452.647704,-28058754.52,5.319999981e+10,0.01442327404,4.01165
4214.4633,-2072898.831,6822922.991,7168.409361,2069.804229,7130861.639,7461.245359,-28058754.52,5.319999981e+10,0.01442327404,4.02605
4294.4809,-1492674.901,6964325.311,7325.568983,1462.042621,7122492.92,7470.042138,-28058754.52,5.319999981e+10,0.01442327404,3.94215
4373.7223,-907685.0132,7055911.915,7430.708829,847.8412968,7114055.457,7478.921618,-28058754.52,5.319999981e+10,0.01442327404,4.00855
4453.6248,-311443.6226,7098626.886,7484.740592,220.3255915,7105455.707,7487.982712,-28058754.52,5.319999981e+10,0.01442327404,3.9638
4532.7244,280992.6118,7091345.893,7486.06615,-404.691637,7096910.836,7496.996847,-28058754.52,5.319999981e+10,0.01442327404,3.9344
4611.665,870284.9225,7034783.509,7435.260122,-1027.886948,7088411.308,7505.973932,-28058754.52,5.319999981e+10,0.01442327404,3.9765
4691.975,1463548.664,6926930.415,7330.11574,-1656.793655,7079854.495,7515.022421,-28058754.52,5.319999981e+10,0.01442327404,4.1065
4773.481,2054789.877,6766202.921,7168.667634,-2285.070593,7071326.849,7524.050987,-28058754.52,5.319999981e+10,0.01442327404,4.0025
4853.6033,2621027.757,6558844.432,6957.010099,-2888.200184,7063159.83,7532.708001,-28058754.52,5.319999981e+10,0.01442327404,4.01455
4933.6084,3167458.314,6304297.143,6694.480019,-3471.555886,7055278.495,7541.07174,-28058754.52,5.319999981e+10,0.01442327404,3.9669
5012.923,3686483.221,6006764.493,6385.307761,-4026.862183,7047792.435,7549.024722,-28058754.52,5.319999981e+10,0.01442327405,3.963
5092.6525,4181619.795,5664346.501,6027.418302,-4557.710881,7040650.921,7556.619606,-28058754.52,5.319999981e+10,0.01442327405,4.04125
5173.1088,4650503.671,5277158.017,5620.810923,-5061.407117,7033888.053,7563.818972,-28058754.52,5.319999981e+10,0.01442327405,3.9798
5252.6799,5080350.069,4855764.105,5176.538162,-5524.019257,7027688.23,7570.425093,-28058754.52,5.319999981e+10,0.01442327405,3.97565
5331.8218,5471265.268,4401640.77,4696.182921,-5945.441869,7022049.921,7576.438018,-28058754.52,5.319999981e+10,0.01442327405,3.9138
5410.1644,5819412.923,3920857.255,4186.220589,-6321.329475,7017028.458,7581.797224,-28058754.52,5.319999981e+10,0.01442327405,3.9249
5489.1436,6128701.997,3408095.397,3641.069745,-6655.713851,7012567.461,7586.561524,-28058754.52,5.319999981e+10,0.01442327405,4.0051
5568.8877,6396178.679,2865468.134,3063.033997,-6945.23648,7008709.533,7590.684227,-28058754.52,5.319999981e+10,0.01442327405,3.94545
5649.1524,6617877.453,2298019.711,2457.582769,-7185.449791,7005511.871,7594.103092,-28058754.52,5.319999981e+10,0.01442327405,4.1714
5735.2243,6800693.961,1670574.784,1787.243757,-7383.698743,7002875.014,7596.923547,-28058754.52,5.319999981e+10,0.01442327405,4.61205
5823.4744,6927460.142,1012397.775,1083.38389,-7521.253576,7001046.584,7598.879918,-28058754.52,5.319999981e+10,0.01442327405,3.9469
5902.6131,6987908.855,414216.4868,443.3149286,-7586.872204,7000174.674,7599.813022,-28058754.52,5.319999981e+10,0.01442327405,3.98035
5962.3136,6999891.666,-39268.43156,-42.02863056,-7599.881819,7000001.81,7599.998031,-28058754.52,5.319999981e+10,0.01442327405,3.9756
6041.87235,6970826.266,-643020.3344,-688.169235,-7568.327051,7000420.986,7599.549411,-28058754.52,5.319999981e+10,0.01442327405,4.02235
6122.3328,6889330.175,-1248792.079,-1336.249656,-7479.871121,7001596.384,7598.291593,-28058754.52,5.319999981e+10,0.01442327405,4.0358
6203.00215,6755664.01,-1846714.822,-1975.502963,-7334.854002,7003524.245,7596.229011,-28058754.52,5.319999981e+10,0.01442327405,3.98915
6282.7703,6573362.053,-2424272.989,-2592.366066,-7137.199564,7006153.596,7593.416848,-28058754.52,5.319999981e+10,0.01442327405,3.9743
6362.3843,6343107.77,-2982904.233,-3188.220047,-6887.766426,7009474.577,7589.866495,-28058754.52,5.319999981e+10,0.01442327405,4.1023
6444.2202,6057981.631,-3534297.813,-3775.351441,-6579.218277,7013586.99,7585.472407,-28058754.52,5.319999981e+10,0.01442327405,3.8922
6522.12495,5742994.877,-4033876.532,-4306.214023,-6238.77696,7018130.095,7580.62116,-28058754.52,5.319999981e+10,0.01442327405,3.95295
6601.1822,5382299.563,-4511989.626,-4813.03792,-5849.474239,7023332.469,7575.069828,-28058754.52,5.319999981e+10,0.01442327405,3.9512
6680.255,4982843.46,-4957764.833,-5284.22123,-5419.009013,7029093.902,7568.926786,-28058754.52,5.319999981e+10,0.01442327405,4
6760.1542,4542927.087,-5372077.261,-5720.651147,-4945.758413,7035438.907,7562.167403,-28058754.52,5.319999981e+10,0.01442327405,3.8992
6838.1932,4081201.883,-5738897.286,-6105.493406,-4449.963709,7042098.471,7555.079533,-28058754.52,5.319999981e+10,0.01442327405,3.9542
6917.6076,3582254.143,-6071244.843,-6452.477134,-3915.253001,7049294.907,7547.427855,-28058754.52,5.319999981e+10,0.01442327405,4.2846
7002.93135,3017653.545,-6379749.374,-6772.529948,-3311.498805,7057438.274,7538.778829,-28058754.52,5.319999981e+10,0.01442327404,3.91635
7081.21265,2477637.507,-6616550.896,-7016.16732,-2735.336232,7065227.057,7530.515797,-28058754.52,5.319999981e+10,0.01442327404,3.87065
7158.6398,1926628.849,-6805725.33,-7208.658536,-2148.753152,7073174.393,7522.09399,-28058754.52,5.319999981e+10,0.01442327404,3.8848
7236.3016,1360891.157,-6949335.862,-7352.289751,-1547.859994,7081334.172,7513.456937,-28058754.52,5.319999981e+10,0.01442327404,3.8506
7313.36155,790424.5626,-7045361.641,-7445.232719,-943.3446719,7089562.161,7504.757785,-28058754.52,5.319999981e+10,0.01442327404,3.89855
7391.33685,207853.8727,-7094920.728,-7488.728944,-327.449246,7097964.735,7495.884484,-28058754.52,5.319999981e+10,0.01442327404,3.90285
7469.37865,-376624.4472,-7096407.643,-7481.412888,288.9993055,7106394.826,7486.992681,-28058754.52,5.319999981e+10,0.01442327404,3.88765
7547.16645,-956673.3555,-7050148.981,-7423.904528,899.3318988,7114761.033,7478.178676,-28058754.52,5.319999981e+10,0.01442327404,3.92245
7625.6899,-1535703.996,-6955598.158,-7315.753755,1507.163144,7123112.557,7469.390453,-28058754.52,5.319999981e+10,0.01442327404,3.9969
7705.6113,-2114305.041,-6810830.039,-7155.106848,2113.121367,7131457.889,7460.619003,-28058754.52,5.319999981e+10,0.01442327404,3.9803
7785.2076,-2675817.951,-6619159.235,-6945.859308,2699.829045,7139556.757,7452.11637,-28058754.52,5.319999981e+10,0.01442327404,3.9706
7864.63365,-3217637.953,-6382141.23,-6689.820327,3264.699706,7147371.592,7443.921021,-28058754.52,5.319999981e+10,0.01442327404,3.98465
7944.3367,-3739083.877,-6100142.576,-6387.505323,3807.164295,7154892.57,7436.042242,-28058754.52,5.319999981e+10,0.01442327404,3.9947
8024.18925,-4235602.268,-5775352.034,-6041.367825,4322.637653,7162054.013,7428.547737,-28058754.52,5.319999981e+10,0.01442327404,3.95325
8103.299,-4698635.884,-5414198.6,-5658.303239,4802.41987,7168732.5,7421.565344,-28058754.52,5.319999981e+10,0.01442327404,3.998
8183.195,-5133991.522,-5012277.438,-5233.676779,5252.708279,7175011.782,7415.006196,-28058754.52,5.319999981e+10,0.01442327404,3.934
8261.9541,-5528573.916,-4582288.268,-4780.902228,5660.144567,7180702.982,7409.066246,-28058754.52,5.319999981e+10,0.01442327404,4.0131
8342.17805,-5892548.747,-4112880.476,-4288.013632,6035.403997,7185952.724,7403.591176,-28058754.52,5.319999981e+10,0.01442327404,3.97505
8421.7233,-6213254.449,-3619376.558,-3771.068106,6365.598679,7190578.385,7398.770249,-28058754.52,5.319999981e+10,0.01442327404,4.0193
8502.03695,-6494316.616,-3096221.088,-3224.169056,6654.627752,7194632.259,7394.547763,-28058754.52,5.319999981e+10,0.01442327404,3.94695
8581.04935,-6727109.507,-2560675.055,-2665.248409,6893.772822,7197989.932,7391.052212,-28058754.52,5.319999981e+10,0.01442327404,4.02035
8661.41315,-6917859.355,-1998473.395,-2079.292798,7089.561374,7200741.209,7388.189157,-28058754.52,5.319999981e+10,0.01442327404,3.97715
8740.9835,-7059764.923,-1428241.608,-1485.578393,7235.118377,7202787.992,7386.059917,-28058754.52,5.319999981e+10,0.01442327404,4.0045
8821.0228,-7154433.491,-844931.0965,-878.68451,7332.176895,7204153.464,7384.639767,-28058754.52,5.319999981e+10,0.01442327404,3.9538
8900.4245,-7200099.137,-260558.2188,-270.9426243,7378.982215,7204812.154,7383.954797,-28058754.52,5.319999981e+10,0.01442327404,4.2795
8938.94,-7204841.335,23778.02429,24.72487243,7383.842257,7204880.572,7383.883652,-28058754.52,5.319999981e+10,0.01442327404,4.2795
9022.9975,-7175656.596,643577.2195,669.2575444,7353.930639,7204459.676,7384.32133,-28058754.52,5.319999981e+10,0.01442327404,4.12625
9106.9955,-7092542.074,1258099.773,1308.519298,7268.726987,7203260.936,7385.568005,-28058754.52,5.319999981e+10,0.01442327404,4.27355
9190.4365,-6957172.955,1859190.35,1934.22366,7129.894594,7201308.512,7387.598939,-28058754.52,5.319999981e+10,0.01442327404,4.07055
9273.7525,-6770456.121,2445606.025,2545.257933,6938.27725,7198615.486,7390.401149,-28058754.52,5.319999981e+10,0.01442327404,4.26105
9356.855,-6534224.182,3012463.551,3136.698151,6695.639718,7195208.288,7393.947966,-28058754.52,5.319999981e+10,0.01442327404,4.0492
9437.3525,-6259368.943,3540380.048,3688.418295,6413.042214,7191244.012,7398.076775,-28058754.52,5.319999981e+10,0.01442327404,4.00055
9516.951,-5944855.7,4038249.472,4209.761358,6089.287116,7186707.737,7402.804082,-28058754.52,5.319999981e+10,0.01442327404,3.9593
9598.977,-5578484.638,4522538.296,4718.087995,5711.634652,7181423.501,7408.314567,-28058754.52,5.319999981e+10,0.01442327404,4.2433
9683.202,-5160312.541,4985722.274,5205.671632,5279.90632,7175392.123,7414.609085,-28058754.52,5.319999981e+10,0.01442327404,4.1792
9765.493,-4713599.27,5401463.959,5644.822844,4817.909068,7168949.084,7421.339011,-28058754.52,5.319999981e+10,0.01442327404,4.0499
9846.4185,-4240626.561,5771754.826,6037.542094,4327.847979,7162127.295,7428.471085,-28058754.52,5.319999981e+10,0.01442327404,4.04265
9926.885,-3740476.071,6099313.577,6386.617522,3808.610608,7154913.511,7436.020316,-28058754.52,5.319999981e+10,0.01442327404,4.004
10005.5775,-3225853.949,6378126.2,6685.49899,3273.255302,7147490.995,7443.795874,-28058754.52,5.319999981e+10,0.01442327404,3.86525
10083.6005,-2694086.439,6612030.307,6938.120496,2718.894504,7139821.183,7451.838924,-28058754.52,5.319999981e+10,0.01442327404,3.93705
10164.3875,-2124612.429,6807778.478,7151.749924,2123.902946,7131607.517,7460.461829,-28058754.52,5.319999981e+10,0.01442327404,4.14165
10253.5935,-1478270.064,6967184.758,7328.790534,1446.935954,7122285.155,7470.260661,-28058754.52,5.319999981e+10,0.01442327404,4.77895
10344.748,-804460.7408,7066926.271,7443.866102,739.311273,7112566.626,7480.489536,-28058754.52,5.319999981e+10,0.01442327404,4.3365
10428.6115,-177868.3086,7101301.904,7489.591861,79.53560615,7103529.114,7490.014163,-28058754.52,5.319999981e+10,0.01442327404,4.04985
10509.5715,428399.9865,7081839.022,7478.270451,-560.4395733,7094784.739,7499.241392,-28058754.52,5.319999981e+10,0.01442327404,4.04615
10590.0815,1028198.038,7011141.088,7412.653592,-1195.139061,7086133.682,7508.38136,-28058754.52,5.319999981e+10,0.01442327404,4.00485
10671.9205,1630223.239,6887138.575,7290.48331,-1833.755585,7077450.499,7517.566524,-28058754.52,5.319999981e+10,0.01442327404,4.17905
10754.6755,2226492.228,6709051.901,7110.607446,-2467.812523,7068850.335,7526.675023,-28058754.52,5.319999981e+10,0.01442327405,4.09645
10836.281,2797659.121,6482696.075,6878.720105,-3076.624997,7060612.222,7535.410516,-28058754.52,5.319999981e+10,0.01442327405,4.0641
10917.211,3343285.249,6209961.38,6596.676823,-3659.541615,7052742.488,7543.764971,-28058754.52,5.319999981e+10,0.01442327405,4.0289
10998.692,3867497.519,5888722.003,6262.146071,-4220.807478,7045181.608,7551.800394,-28058754.52,5.319999981e+10,0.01442327405,4.1192
11080.28,4363089.078,5522442.364,5878.603813,-4752.538557,7038033.529,7559.405104,-28058754.52,5.319999981e+10,0.01442327405,4.0396
11160.2285,4816554.473,5122762.678,5458.219715,-5240.018711,7031493.046,7566.370236,-28058754.52,5.319999981e+10,0.01442327405,3.95525
11240.47,5236208.776,4683900.94,4994.919383,-5691.96025,7025440.226,7572.821874,-28058754.52,5.319999981e+10,0.01442327405,4.0689
11321.492,5620639.133,4205632.869,4488.435967,-6106.651782,7019895.447,7578.736927,-28058754.52,5.319999981e+10,0.01442327405,4.0333
11403.196,5965274.881,3691160.147,3942.159492,-6478.973487,7014924.635,7584.043704,-28058754.52,5.319999981e+10,0.01442327405,4.1371
11485.8385,6267116.277,3141872.069,3357.603463,-6805.496721,7010571.055,7588.694659,-28058754.52,5.319999981e+10,0.01442327405,4.12715
11569.0805,6521122.321,2563535.685,2740.98889,-7080.587467,7006907.416,7592.610814,-28058754.52,5.319999981e+10,0.01442327405,4.19705
11650.709,6719411.307,1976408.773,2114.082633,-7295.536187,7004047.398,7595.6694,-28058754.52,5.319999981e+10,0.01442327405,3.9658
11730.4715,6863041.05,1387923.587,1485.043484,-7451.343006,7001975.745,7597.885676,-28058754.52,5.319999981e+10,0.01442327405,4.01045
11811.1835,6956807.282,782022.2772,836.9056749,-7553.108603,7000623.286,7599.33291,-28058754.52,5.319999981e+10,0.01442327405,4.06075
11891.3345,6997856.598,174469.2836,186.7291601,-7597.672311,7000031.178,7599.9666,-28058754.52,5.319999981e+10,0.01442327405,3.95435
11919.01495,6999909.575,-35884.16145,-38.40652531,-7599.901263,7000001.552,7599.998307,-28058754.52,5.319999981e+10,0.01442327405,3.95435
11999.3744,6970581.183,-645710.0324,-691.0474358,-7568.060993,7000424.521,7599.545628,-28058754.52,5.319999981e+10,0.01442327405,4.0292
12081.2997,6886884.622,-1262404.866,-1350.808986,-7477.217174,7001631.656,7598.253851,-28058754.52,5.319999981e+10,0.01442327405,4.1081
12163.99465,6748008.588,-1874907.607,-2005.630258,-7326.550897,7003634.659,7596.110899,-28058754.52,5.319999981e+10,0.01442327405,4.13945
12244.25575,6562042.643,-2455213.277,-2625.390492,-7124.931787,7006316.856,7593.242272,-28058754.52,5.319999981e+10,0.01442327405,3.99075
12326.23995,6321553.001,-3029036.134,-3237.383652,-6864.428367,7009785.464,7589.534223,-28058754.52,5.319999981e+10,0.01442327405,4.11835
12408.3698,6031371.701,-3580271.168,-3824.251088,-6550.440904,7013970.789,7585.062453,-28058754.52,5.319999981e+10,0.01442327405,4.1044
12490.3558,5694858.354,-4102741.03,-4379.294503,-6186.789272,7018824.377,7579.880067,-28058754.52,5.319999981e+10,0.01442327405,4.0984
