t,x,y,vx,vy,r,v,energy,h,e,dt_eff
0,7000000,0,0,7600,7000000,7600,-28058754.29,5.32e+10,0.0144233172,0
21.999048,6998031.813,167177.0947,-178.92513,7597.863119,7000028.388,7599.969617,-28058754.29,5.32e+10,0.0144233172,1.0999524
26.661438,6997109.214,202599.0352,-216.8358641,7596.861452,7000041.695,7599.955375,-28058754.29,5.32e+10,0.0144233172,0.226221
31.386792,6995993.819,238494.1113,-255.2527351,7595.650468,7000057.782,7599.938157,-28058754.29,5.32e+10,0.0144233172,0.24816
35.767032,6994797.769,271762.1011,-290.8577,7594.351924,7000075.033,7599.919694,-28058754.29,5.32e+10,0.0144233172,0.220848
40.174248,6993436.966,305228.8578,-326.6751112,7592.874517,7000094.661,7599.898687,-28058754.29,5.32e+10,0.0144233172,0.218956
44.449792,6991965.984,337689.1702,-361.4150828,7591.277498,7000115.877,7599.87598,-28058754.29,5.32e+10,0.0144233172,0.236816
49.083672,6990204.01,372861.8802,-399.0575652,7589.364569,7000141.291,7599.848781,-28058754.29,5.32e+10,0.0144233172,0.23732
53.902824,6988186.584,409430.9863,-438.1940392,7587.174318,7000170.389,7599.817639,-28058754.29,5.32e+10,0.0144233172,0.240216
58.448976,6986110.588,443918.3799,-475.1021843,7584.920499,7000200.331,7599.785593,-28058754.29,5.32e+10,0.0144233172,0.239628
62.806608,6983963.207,476965.6534,-510.4686614,7582.5892,7000231.304,7599.752445,-28058754.29,5.32e+10,0.0144233172,0.219888
67.4177616,6981523.097,511924.1012,-547.879905,7579.940127,7000266.498,7599.714778,-28058754.29,5.32e+10,0.0144233172,0.2447328
72.223144,6978796.681,548341.5819,-586.8519287,7576.980259,7000305.822,7599.672693,-28058754.29,5.32e+10,0.0144233172,0.213848
76.692024,6976093.155,582195.7048,-623.0801755,7574.045275,7000344.816,7599.63096,-28058754.29,5.32e+10,0.0144233172,0.226272
81.392116,6973075.109,617786.7908,-661.1665206,7570.768883,7000388.346,7599.584374,-28058754.29,5.32e+10,0.0144233172,0.226652
86.113864,6969862.951,653525.8982,-699.4105265,7567.281807,7000434.676,7599.534791,-28058754.29,5.32e+10,0.0144233172,0.234832
90.791172,6966503.031,688911.9508,-737.2759611,7563.634372,7000483.137,7599.482927,-28058754.29,5.32e+10,0.0144233172,0.212948
95.3760336,6963037.671,723581.6144,-774.3740265,7559.872527,7000533.119,7599.429436,-28058754.29,5.32e+10,0.0144233172,0.2397456
100.1848752,6959220.314,759925.9615,-813.263199,7555.728632,7000588.178,7599.370513,-28058754.29,5.32e+10,0.0144233172,0.2352432
104.9455056,6955257.072,795885.8312,-851.740044,7551.426442,7000645.341,7599.309338,-28058754.29,5.32e+10,0.0144233172,0.2337456
109.6551456,6951156.093,831439.9248,-889.7817588,7546.974809,7000704.491,7599.246038,-28058754.29,5.32e+10,0.0144233172,0.2380656
114.358728,6946881.626,866926.9066,-927.7506788,7542.334934,7000766.143,7599.18006,-28058754.29,5.32e+10,0.0144233172,0.224684
119.050084,6942440.434,902299.4522,-965.5961344,7537.514168,7000830.2,7599.111509,-28058754.29,5.32e+10,0.0144233172,0.239836
123.718764,6937844.508,937478.1228,-1003.233104,7532.525535,7000896.488,7599.040571,-28058754.29,5.32e+10,0.0144233172,0.224028
128.205188,6933262.493,971261.1354,-1039.375855,7527.552098,7000962.576,7598.969848,-28058754.29,5.32e+10,0.0144233172,0.223036
132.757048,6928447.991,1005513.674,-1076.019858,7522.326413,7001032.017,7598.895538,-28058754.29,5.32e+10,0.0144233172,0.215296
137.4798,6923276.493,1041026.578,-1114.011043,7516.713358,7001106.607,7598.815718,-28058754.29,5.32e+10,0.0144233172,0.2479152
142.060488,6918089.215,1075445.472,-1150.830683,7511.083297,7001181.425,7598.735656,-28058754.29,5.32e+10,0.0144233172,0.214068
146.7591216,6912593.214,1110723.362,-1188.567981,7505.118292,7001260.696,7598.650829,-28058754.29,5.32e+10,0.0144233172,0.2351568
151.323168,6907084.942,1144963.497,-1225.193919,7499.140104,7001340.143,7598.565814,-28058754.29,5.32e+10,0.0144233172,0.2447616
155.536776,6901851.264,1176550.021,-1258.980215,7493.460062,7001415.63,7598.485038,-28058754.29,5.32e+10,0.0144233172,0.209292
160.061932,6896072.143,1210444.973,-1295.234459,7487.188198,7001498.984,7598.395845,-28058754.29,5.32e+10,0.0144233172,0.2327
164.6451086,6890051.772,1244745.176,-1331.920811,7480.654675,7001585.818,7598.30293,-28058754.29,5.32e+10,0.0144233172,0.2208685714
169.15278,6883966.649,1278450.692,-1367.969742,7474.051046,7001673.586,7598.209016,-28058754.29,5.32e+10,0.0144233172,0.21786
173.755176,6877586.078,1312833.372,-1404.741485,7467.126971,7001765.615,7598.110544,-28058754.29,5.32e+10,0.0144233172,0.230312
178.521116,6870800.5,1348403.782,-1442.781922,7459.76359,7001863.485,7598.005823,-28058754.29,5.32e+10,0.0144233172,0.23314
183.2986903,6863816.489,1384025.332,-1480.875408,7452.185094,7001964.218,7597.898041,-28058754.29,5.32e+10,0.0144233172,0.2414022857
187.904312,6856911.646,1418330.094,-1517.559133,7444.69272,7002063.809,7597.791482,-28058754.29,5.32e+10,0.0144233172,0.212248
192.404064,6850002.44,1451812.563,-1553.361992,7437.195824,7002163.462,7597.684858,-28058754.29,5.32e+10,0.0144233172,0.2358768
197.0791344,6842653.491,1486563.412,-1590.519469,7429.222015,7002269.459,7597.571449,-28058754.29,5.32e+10,0.0144233172,0.2404176
201.854976,6834966.866,1522024.362,-1628.434437,7420.882077,7002380.325,7597.452831,-28058754.29,5.32e+10,0.0144233172,0.23676
206.608632,6827136.238,1557280.566,-1666.128653,7412.386169,7002493.269,7597.331993,-28058754.29,5.32e+10,0.0144233172,0.235992
211.4161584,6819034.739,1592894.76,-1704.203707,7403.596664,7002610.119,7597.206976,-28058754.29,5.32e+10,0.0144233172,0.2374896
216.2099712,6810774.198,1628364.815,-1742.122712,7394.634914,7002729.264,7597.079508,-28058754.29,5.32e+10,0.0144233172,0.2400528
220.82358,6802652.629,1662460.513,-1778.570591,7385.824231,7002846.404,7596.954187,-28058754.29,5.32e+10,0.0144233172,0.22418
225.385032,6794457.663,1696130.388,-1814.56142,7376.93422,7002964.602,7596.827734,-28058754.29,5.32e+10,0.0144233172,0.23212
230.034936,6785934.917,1730411,-1851.203156,7367.688948,7003087.529,7596.696227,-28058754.29,5.32e+10,0.0144233172,0.226904
234.440216,6777703.469,1762848.126,-1885.872599,7358.759977,7003206.253,7596.569216,-28058754.29,5.32e+10,0.0144233172,0.23852
239.034608,6768956.059,1796635.427,-1921.983199,7349.271654,7003332.42,7596.434247,-28058754.29,5.32e+10,0.0144233172,0.233864
243.618856,6760062.717,1830304.268,-1957.965189,7339.62539,7003460.692,7596.297028,-28058754.29,5.32e+10,0.0144233172,0.225188
248.1637056,6751083.089,1863639.696,-1993.588844,7329.885892,7003590.208,7596.158481,-28058754.29,5.32e+10,0.0144233172,0.2471664
252.955712,6741439.91,1898739.574,-2031.095855,7319.427093,7003729.294,7596.009699,-28058754.29,5.32e+10,0.0144233172,0.234148
257.486768,6732156.653,1931881.565,-2066.508581,7309.359052,7003863.19,7595.866472,-28058754.29,5.32e+10,0.0144233172,0.230804
262.1382528,6722459.873,1965856.55,-2102.809191,7298.84294,7004003.049,7595.716869,-28058754.29,5.32e+10,0.0144233172,0.2401584
266.980392,6712186.406,2001171.67,-2140.539275,7287.701873,7004151.227,7595.558371,-28058754.29,5.32e+10,0.0144233172,0.237936
271.68154,6702037.423,2035406.439,-2177.112756,7276.696264,7004297.609,7595.401798,-28058754.29,5.32e+10,0.0144233172,0.236012
276.206392,6692106.772,2068308.114,-2212.259828,7265.927861,7004440.842,7595.248596,-28058754.29,5.32e+10,0.0144233172,0.234896
280.63064,6682243.262,2100430.783,-2246.572566,7255.2327,7004583.106,7595.096433,-28058754.29,5.32e+10,0.0144233172,0.214232
285.158328,6671992.091,2133255.115,-2281.632556,7244.117651,7004730.962,7594.938293,-28058754.29,5.32e+10,0.0144233172,0.238376
289.7018976,6661545.514,2166143.602,-2316.75875,7232.791213,7004881.636,7594.777142,-28058754.29,5.32e+10,0.0144233172,0.2445408
294.281664,6650854.336,2199241.62,-2352.106345,7221.200075,7005035.839,7594.612221,-28058754.29,5.32e+10,0.0144233172,0.2473344
298.9896,6639695.355,2233210.163,-2388.381094,7209.102302,7005196.788,7594.440088,-28058754.29,5.32e+10,0.0144233172,0.209664
303.481728,6628888.813,2265568.123,-2422.933483,7197.387146,7005352.654,7594.273395,-28058754.29,5.32e+10,0.0144233172,0.247872
307.876896,6618165.425,2297176.361,-2456.682976,7185.762653,7005507.321,7594.107989,-28058754.29,5.32e+10,0.0144233172,0.209268
312.307248,6607206.202,2328985.564,-2490.644684,7173.883036,7005665.39,7593.938949,-28058754.29,5.32e+10,0.0144233172,0.243636
316.711884,6596161.565,2360557.601,-2524.350792,7161.911375,7005824.69,7593.768595,-28058754.29,5.32e+10,0.0144233172,0.233196
321.2823408,6584544.322,2393262.098,-2559.263363,7149.319633,7005992.249,7593.589413,-28058754.29,5.32e+10,0.0144233172,0.2493936
326.006348,6572369.242,2427004.439,-2595.281087,7136.123908,7006167.854,7593.401633,-28058754.29,5.32e+10,0.0144233172,0.218036
330.58428,6560408.455,2459643.524,-2630.118444,7123.161084,7006340.368,7593.217162,-28058754.29,5.32e+10,0.0144233172,0.227336
335.172528,6548260.845,2492296.218,-2664.967614,7109.99644,7006515.577,7593.029814,-28058754.29,5.32e+10,0.0144233172,0.2418432
339.9961488,6535317.836,2526558.393,-2701.531564,7095.970527,7006702.258,7592.830205,-28058754.29,5.32e+10,0.0144233172,0.2497152
344.754672,6522376.862,2560291.443,-2737.527822,7081.947567,7006888.91,7592.630632,-28058754.29,5.32e+10,0.0144233172,0.220992
349.348008,6509722.811,2592789.783,-2772.203653,7068.236241,7007071.423,7592.435489,-28058754.29,5.32e+10,0.0144233172,0.22296
353.976504,6496810.952,2625472.777,-2807.073614,7054.246304,7007257.655,7592.236376,-28058754.29,5.32e+10,0.0144233172,0.229412
358.8434213,6483060.089,2659769.034,-2843.661616,7039.348127,7007455.988,7592.02433,-28058754.29,5.32e+10,0.0144233172,0.2462026667
363.5831664,6469497.568,2693099,-2879.215593,7024.654833,7007651.605,7591.815195,-28058754.29,5.32e+10,0.0144233172,0.2361024
368.349936,6455687.945,2726548.329,-2914.89371,7009.694677,7007850.785,7591.602256,-28058754.29,5.32e+10,0.0144233172,0.236904
373.2253728,6441387.776,2760685.968,-2951.302657,6994.204003,7008057.041,7591.381759,-28058754.29,5.32e+10,0.0144233172,0.2485008
378.0201535,6427151.249,2794184.746,-2987.0269,6978.783175,7008262.379,7591.16225,-28058754.29,5.32e+10,0.0144233172,0.2392930909
382.882386,6412539.729,2828078.814,-3023.169275,6962.957098,7008473.126,7590.936965,-28058754.29,5.32e+10,0.0144233172,0.234382
387.614158,6398151.73,2860989.143,-3058.259314,6947.374052,7008680.649,7590.715134,-28058754.29,5.32e+10,0.0144233172,0.238394
392.492176,6383145.43,2894838.997,-3094.347616,6931.122334,7008897.089,7590.483777,-28058754.29,5.32e+10,0.0144233172,0.238192
397.356558,6368005.992,2928514.825,-3130.246816,6914.727444,7009115.45,7590.250375,-28058754.29,5.32e+10,0.0144233172,0.244778
402.298384,6352446.928,2962644.654,-3166.626306,6897.879195,7009339.863,7590.010511,-28058754.29,5.32e+10,0.0144233172,0.248984
406.9723063,6337566.122,2994847.217,-3200.948039,6881.766412,7009554.494,7589.78111,-28058754.29,5.32e+10,0.0144233172,0.2368817143
411.7990892,6322030.476,3028023.489,-3236.303996,6864.945629,7009778.569,7589.541622,-28058754.29,5.32e+10,0.0144233172,0.2443107692
416.6169637,6306353.538,3061057.122,-3271.504297,6847.972955,7010004.683,7589.299964,-28058754.29,5.32e+10,0.0144233172,0.2413126154
421.5489686,6290129.796,3094788.125,-3307.443895,6830.409435,7010238.683,7589.049886,-28058754.29,5.32e+10,0.0144233172,0.2494474286
426.3666576,6274111.182,3127653.216,-3342.457124,6813.069133,7010469.725,7588.802977,-28058754.29,5.32e+10,0.0144233172,0.2395392
431.1659664,6257986.184,3160309.427,-3377.244086,6795.614824,7010702.301,7588.554438,-28058754.29,5.32e+10,0.0144233172,0.2406048
435.8416043,6242116.359,3192043.17,-3411.044776,6778.437855,7010931.196,7588.309839,-28058754.29,5.32e+10,0.0144233172,0.2410024615
440.5838777,6225859.144,3224146.724,-3445.235683,6760.842751,7011165.679,7588.059278,-28058754.29,5.32e+10,0.0144233172,0.2345211429
445.3245909,6209445.435,3256155.904,-3479.32234,6743.079468,7011402.419,7587.806314,-28058754.29,5.32e+10,0.0144233172,0.2261417143
450.0897291,6192784.539,3288244.723,-3513.490003,6725.049899,7011642.725,7587.549549,-28058754.29,5.32e+10,0.0144233172,0.2487017143
454.829832,6176049.869,3320079.302,-3547.38314,6706.941741,7011884.094,7587.291656,-28058754.29,5.32e+10,0.0144233172,0.223296
459.3463957,6159955.124,3350332.363,-3579.588921,6689.527206,7012116.234,7587.043633,-28058754.29,5.32e+10,0.0144233172,0.2340904615
463.895772,6143596.604,3380725.341,-3611.940094,6671.828448,7012352.178,7586.791554,-28058754.29,5.32e+10,0.0144233172,0.211068
468.554824,6126691.388,3411767.196,-3644.978224,6653.539453,7012596.007,7586.531059,-28058754.29,5.32e+10,0.0144233172,0.242848
473.0622388,6110190.094,3441717.285,-3676.850759,6635.688671,7012834.011,7586.276797,-28058754.29,5.32e+10,0.0144233172,0.2426344615
477.921669,6092239.407,3473915.845,-3711.11207,6616.271339,7013092.919,7586.000213,-28058754.29,5.32e+10,0.0144233172,0.243153
482.754264,6074222.987,3505842.59,-3745.07998,6596.784345,7013352.776,7585.722625,-28058754.29,5.32e+10,0.0144233172,0.24192
487.5929664,6056019.587,3537714.905,-3778.98578,6577.096575,7013615.329,7585.442168,-28058754.29,5.32e+10,0.0144233172,0.2419632
492.4477632,6037591.017,3569597.066,-3812.897792,6557.166776,7013881.13,7585.158252,-28058754.29,5.32e+10,0.0144233172,0.2432576
497.1961935,6019407.194,3600686.697,-3845.962653,6537.503142,7014143.401,7584.878117,-28058754.29,5.32e+10,0.0144233172,0.2361855
501.947796,6001054.306,3631703.232,-3878.945621,6517.658175,7014408.111,7584.595389,-28058754.29,5.32e+10,0.0144233172,0.241764
506.785749,5982207.131,3663186.132,-3912.42022,6497.280295,7014679.949,7584.305057,-28058754.29,5.32e+10,0.0144233172,0.242061
511.723104,5962806.019,3695213.805,-3946.469543,6476.305139,7014959.778,7584.006204,-28058754.29,5.32e+10,0.0144233172,0.249456
516.648321,5943285.392,3727059.118,-3980.320423,6455.202459,7015241.33,7583.705523,-28058754.29,5.32e+10,0.0144233172,0.246585
521.5723242,5923603.197,3758792.248,-4014.047449,6433.926833,7015525.213,7583.402365,-28058754.29,5.32e+10,0.0144233172,0.2450456471
526.4319827,5904015.649,3790007.562,-4047.219576,6412.755225,7015807.73,7583.100677,-28058754.29,5.32e+10,0.0144233172,0.2398888421
531.2646085,5884377.471,3820946.791,-4080.093797,6391.530605,7016090.978,7582.798221,-28058754.29,5.32e+10,0.0144233172,0.2437609412
536.211928,5864108.937,3852513.625,-4113.630177,6369.626502,7016383.317,7582.486071,-28058754.29,5.32e+10,0.0144233172,0.2497693333
541.1647655,5843651.901,3884006.68,-4147.083378,6347.520538,7016678.375,7582.17103,-28058754.29,5.32e+10,0.0144233172,0.2467301053
545.9731402,5823633.321,3914476,-4179.444504,6325.890172,7016967.11,7581.862755,-28058754.29,5.32e+10,0.0144233172,0.2383149474
550.8437457,5803197.306,3945233.214,-4212.106721,6303.810595,7017261.865,7581.548065,-28058754.29,5.32e+10,0.0144233172,0.2448341053
555.805896,5782213.891,3976457.499,-4245.260063,6281.141526,7017564.515,7581.224959,-28058754.29,5.32e+10,0.0144233172,0.2486851765
560.6096709,5761743.768,4006577.642,-4277.236328,6259.028866,7017859.762,7580.90977,-28058754.29,5.32e+10,0.0144233172,0.2267142857
565.3968,5741192.047,4036487.352,-4308.984541,6236.829932,7018156.186,7580.593339,-28058754.29,5.32e+10,0.0144233172,0.242517
569.984296,5721355.024,4065049.697,-4339.298183,6215.404758,7018442.302,7580.287925,-28058754.29,5.32e+10,0.0144233172,0.243208
574.72278,5700719.37,4094448.555,-4370.495092,6193.118868,7018739.937,7579.970228,-28058754.29,5.32e+10,0.0144233172,0.240828
579.4162191,5680134.429,4123463.475,-4401.28001,6170.889629,7019036.84,7579.653326,-28058754.29,5.32e+10,0.0144233172,0.2489427692
584.2682486,5658702.325,4153348.737,-4432.983547,6147.747556,7019345.962,7579.323395,-28058754.29,5.32e+10,0.0144233172,0.2374131429
588.622072,5639340.162,4180069.483,-4461.32584,6126.842327,7019625.228,7579.025343,-28058754.29,5.32e+10,0.0144233172,0.212536
593.2636117,5618562.832,4208455.465,-4491.43003,6104.410999,7019924.906,7578.70552,-28058754.29,5.32e+10,0.0144233172,0.2395846154
598.1317063,5596621.524,4238114.729,-4522.879672,6080.725113,7020241.373,7578.367794,-28058754.29,5.32e+10,0.0144233172,0.2454617143
602.9541651,5574735.254,4267381.876,-4553.908548,6057.100769,7020557.046,7578.030931,-28058754.29,5.32e+10,0.0144233172,0.2454154286
607.8056006,5552566.799,4296709.534,-4584.996549,6033.173995,7020876.788,7577.689741,-28058754.29,5.32e+10,0.0144233172,0.2402451429
612.5307943,5530830.508,4325162.087,-4615.152037,6009.71578,7021190.298,7577.355217,-28058754.29,5.32e+10,0.0144233172,0.2485714286
617.3856411,5508349.701,4354279.514,-4646.007146,5985.456272,7021514.545,7577.00925,-28058754.29,5.32e+10,0.0144233172,0.2314114286
622.047826,5486620.324,4382130.218,-4675.515095,5962.009777,7021827.955,7576.674863,-28058754.29,5.32e+10,0.0144233172,0.237674
626.7456549,5464585.952,4410082.936,-4705.1263,5938.236323,7022145.764,7576.335799,-28058754.29,5.32e+10,0.0144233172,0.2333931429
631.537608,5441967.092,4438480.281,-4735.203494,5913.834488,7022472.003,7575.987756,-28058754.29,5.32e+10,0.0144233172,0.2457017143
636.354472,5419085.706,4466907.033,-4765.306694,5889.15174,7022802.028,7575.63569,-28058754.29,5.32e+10,0.0144233172,0.229622
641.0244218,5396764.062,4494352.913,-4794.366231,5865.075034,7023123.98,7575.292253,-28058754.29,5.32e+10,0.0144233172,0.2352130909
645.740584,5374084.098,4521955.935,-4823.587177,5840.614097,7023451.101,7574.943319,-28058754.29,5.32e+10,0.0144233172,0.237376
650.611932,5350513.482,4550345.749,-4853.635759,5815.194983,7023791.067,7574.580699,-28058754.29,5.32e+10,0.0144233172,0.238812
655.3988126,5327209.301,4578122.307,-4883.030005,5790.065617,7024127.191,7574.222196,-28058754.29,5.32e+10,0.0144233172,0.2328137143
660.035008,5304504.871,4604909.489,-4911.372267,5765.585288,7024454.664,7573.872936,-28058754.29,5.32e+10,0.0144233172,0.232448
664.6384731,5281831.002,4631394.946,-4939.390407,5741.140188,7024781.696,7573.524163,-28058754.29,5.32e+10,0.0144233172,0.2234228571
669.297912,5258750.392,4658087.525,-4967.622675,5716.25891,7025114.595,7573.16915,-28058754.29,5.32e+10,0.0144233172,0.219888
673.857168,5236038.989,4684093.656,-4995.124025,5691.777946,7025442.169,7572.819832,-28058754.29,5.32e+10,0.0144233172,0.221456
678.57,5212431.074,4710858.146,-5023.422243,5666.333038,7025782.674,7572.456743,-28058754.29,5.32e+10,0.0144233172,0.215088
683.276188,5188723.669,4737464.909,-5051.548502,5640.78338,7026124.613,7572.092142,-28058754.29,5.32e+10,0.0144233172,0.222188
687.878136,5165413.668,4763365.754,-5078.923484,5615.664432,7026460.821,7571.73367,-28058754.29,5.32e+10,0.0144233172,0.221592
692.593872,5141396.922,4789786.783,-5106.843057,5589.786407,7026807.222,7571.364347,-28058754.29,5.32e+10,0.0144233172,0.221704
696.917008,5119264.234,4813900.687,-5132.320002,5565.940712,7027126.449,7571.024013,-28058754.29,5.32e+10,0.0144233172,0.214352
701.432084,5096031.577,4838974.877,-5158.806745,5540.912244,7027461.541,7570.666782,-28058754.29,5.32e+10,0.0144233172,0.215444
705.864904,5073106.104,4863482.054,-5184.689768,5516.217044,7027792.202,7570.314291,-28058754.29,5.32e+10,0.0144233172,0.22274
710.349376,5049797.025,4888163.128,-5210.751627,5491.111008,7028128.396,7569.955919,-28058754.29,5.32e+10,0.0144233172,0.228844
714.9871474,5025568.501,4913569.187,-5237.573905,5465.01719,7028477.852,7569.583429,-28058754.29,5.32e+10,0.0144233172,0.2144502857
719.631216,5001182.74,4938888.175,-5264.299007,5438.75665,7028829.575,7569.208541,-28058754.29,5.32e+10,0.0144233172,0.236404
724.191064,4977118.759,4963629.05,-5290.408757,5412.845205,7029176.658,7568.838618,-28058754.29,5.32e+10,0.0144233172,0.21884
728.904632,4952118.716,4989079.48,-5317.261946,5385.928543,7029537.241,7568.454325,-28058754.29,5.32e+10,0.0144233172,0.240152
733.5201977,4927516.121,5013877.512,-5343.42146,5359.442496,7029892.092,7568.076161,-28058754.29,5.32e+10,0.0144233172,0.2166582857
738.257804,4902137.765,5039203.781,-5370.132715,5332.1241,7030258.132,7567.686093,-28058754.29,5.32e+10,0.0144233172,0.233228
