t,x,y,vx,vy,r,v,energy,h,e,dt_eff
0,75000000,0,0,64000,75000000,64000,359033066.7,4.8e+12,1.42515109,0
928.65,66211689.08,57241420.57,-17259.21738,57573.78994,87524670.8,60105.09024,359033056.6,4.799999999e+12,1.42515108,46.4325
1011.525,64739668.27,61975575.37,-18249.23164,56673.03319,89622522.79,59538.78691,359033056.6,4.799999999e+12,1.42515108,4.14375
1092.011,63235086.74,66501620.15,-19124.40445,55794.91231,91766778.72,58981.48086,359033056.6,4.799999999e+12,1.42515108,4.0243
1166.93,61774069.76,70651181.57,-19866.94998,54980.61763,93848948.59,58459.93514,359033056.6,4.799999999e+12,1.42515108,3.74595
1246.408,60166139.23,74986865.41,-20583.53856,54125.21072,96140492.47,57906.99867,359033056.6,4.799999999e+12,1.42515108,3.9739
1324.006,58543900.09,79154863.38,-21217.40915,53302.54513,98452428.28,57370.19931,359033056.6,4.799999999e+12,1.42515108,3.8799
1402.431,56856812.5,83303022.36,-21797.00517,52487.00128,100856782.9,56833.04266,359033056.6,4.799999999e+12,1.42515108,3.92125
1481.07,55121739.1,87398996.18,-22321.4906,51687.849,103329524.6,56301.71114,359033056.6,4.799999999e+12,1.42515108,3.93195
1564.691,53233866.41,91686432.38,-22822.24365,50860.66603,106020028.4,55746.40933,359033056.6,4.799999999e+12,1.42515108,4.18105
1641.879,51455978.24,95583508.49,-23236.95227,50119.16326,108553787.6,55243.88181,359033056.6,4.799999999e+12,1.42515108,3.8594
1723.629,49539949.57,99649460.86,-23630.98227,49357.84912,111284417.8,54723.12668,359033056.6,4.799999999e+12,1.42515108,4.0875
1802.742,47656690.12,103525958.1,-23972.10595,48645.10642,113968347,54231.06345,359033056.6,4.799999999e+12,1.42515108,3.95565
1876.638,45874488.92,107096705.2,-24258.31322,48000.85257,116508252.9,53782.40984,359033056.6,4.799999999e+12,1.42515108,3.6948
1944.15,44228649.83,110317984,-24494.82511,47430.34848,118853822.3,53381.96713,359033056.6,4.799999999e+12,1.42515108,3.3756
2014.389,42500196.92,113629129.1,-24717.73854,46854.9569,121317128.7,52975.02793,359033056.6,4.799999999e+12,1.42515108,3.51195
2083.911,40774723.73,116867304.2,-24917.07729,46303.40013,123776188.7,52581.98935,359033056.6,4.799999999e+12,1.42515108,3.4761
2150.098,39119760.9,119915062.3,-25088.81382,45794.58785,126134760.7,52216.7871,359033056.6,4.799999999e+12,1.42515108,3.30935
2220.316,37352194.9,123112209.7,-25253.38824,45271.75913,128653809.3,51838.84444,359033056.6,4.799999999e+12,1.42515108,3.5109
2285.775,35694527.16,126060124.1,-25391.81762,44799.70593,131016236.2,51495.2236,359033056.6,4.799999999e+12,1.42515108,3.27295
2353.461,33971407.7,129076344.4,-25521.00998,44326.7273,133471941.7,51148.6139,359033056.6,4.799999999e+12,1.42515108,3.3843
2419.168,32290723.38,131974229.6,-25633.96472,43881.8678,135867170.8,50820.45325,359033056.6,4.799999999e+12,1.42515108,3.28535
2484.926,30601680.26,134845551,-25735.71826,43450.32296,138274312.4,50500.07683,359033056.6,4.799999999e+12,1.42515108,3.2879
2555.717,28776287.85,137905433.1,-25833.67819,43000.52275,140875772.3,50163.96999,359033056.6,4.799999999e+12,1.42515108,3.53955
2622.264,27054352.6,140753297.4,-25915.72075,42591.18172,143329790.1,49856.12643,359033056.6,4.799999999e+12,1.42515108,3.32735
2688.271,25341292.72,143551557.8,-25988.27663,42197.62648,145771159.2,49558.35149,359033056.6,4.799999999e+12,1.42515108,3.30035
2753.588,23641690.1,146295384,-26052.12104,41819.97751,148193349.7,49270.91971,359033056.6,4.799999999e+12,1.42515108,3.26585
2819.319,21927349.36,149032076.4,-26109.02098,41451.35715,150636544.2,48988.73325,359033056.6,4.799999999e+12,1.42515108,3.28655
2884.512,20223568.15,151722795.1,-26158.75063,41096.66653,153064689.8,48715.66724,359033056.6,4.799999999e+12,1.42515108,3.25965
2949.443,18523613.09,154380056.7,-26202.1677,40753.8131,155487382.6,48450.25154,359033056.6,4.799999999e+12,1.42515108,3.24655
3015.482,16791949.69,157060166.8,-26240.56175,40415.37796,157955264.5,48186.82243,359033056.6,4.799999999e+12,1.42515108,3.30195
3080.592,15082337.96,159681015.6,-26273.17277,40091.46922,160391719.5,47933.34446,359033056.6,4.799999999e+12,1.42515108,3.2555
3145.248,13382701.82,162263021.4,-26300.80878,39779.06016,162813957.7,47687.58926,359033056.6,4.799999999e+12,1.42515108,3.2328
3210.907,11655018.58,164864708.3,-26324.40985,39470.88085,165276167.3,47443.91414,359033056.6,4.799999999e+12,1.42515108,3.28295
3276.069,9939016.568,167426982.5,-26343.73184,39173.74198,167721729.4,47207.77762,359033056.6,4.799999999e+12,1.42515108,3.2581
3341.968,8202453.005,169998825.4,-26359.44322,38881.73602,170196594.8,46974.56379,359033056.6,4.799999999e+12,1.42515108,3.29495
3407.215,6482166.869,172526531.4,-26371.5015,38600.72145,172648262.4,46749.02981,359033056.6,4.799999999e+12,1.42515108,3.26235
3472.539,4759168.774,175039108,-26380.35962,38327.15158,175103795,46528.42058,359033056.6,4.799999999e+12,1.42515108,3.2662
3537.868,3035558.289,177534250.6,-26386.25186,38061.05507,177560200.3,46312.82976,359033056.6,4.799999999e+12,1.42515108,3.26645
3603.089,1314503.501,180008163.9,-26389.40506,37802.59913,180012963.4,46102.46415,359033056.6,4.799999999e+12,1.42515108,3.26105
3668.155,-402583.361,182459627.4,-26390.04443,37551.66376,182460071.5,45897.29727,359033056.6,4.799999999e+12,1.42515108,3.2533
3733.105,-2116574.639,184890653.5,-26388.37963,37307.80488,184902768,45697.03365,359033056.6,4.799999999e+12,1.42515108,3.2475
3800.537,-3895874.261,187398046.9,-26384.40768,37061.37803,187438538.8,45493.76562,359033056.6,4.799999999e+12,1.42515108,3.3716
3865.402,-5607120.597,189794515.5,-26378.59962,36830.58549,189877323.3,45302.56666,359033056.6,4.799999999e+12,1.42515108,3.24325
3934.629,-7432960.219,192335848.1,-26370.424,36590.78699,192479420.6,45103.04818,359033056.6,4.799999999e+12,1.42515108,3.46135
4015.038,-9552919.748,195267147.4,-26358.58431,36320.36861,195500683.2,44876.98901,359033056.6,4.799999999e+12,1.42515108,4.02045
4090.669,-11545957.77,198004717.9,-26345.35649,36073.65341,198341063.4,44669.7468,359033056.6,4.799999999e+12,1.42515108,3.78155
4171.475,-13674181.14,200909298.5,-26329.19594,35817.88778,201374103.2,44453.88221,359033056.6,4.799999999e+12,1.42515108,4.0403
4248.399,-15698879.17,203655422,-26312.04908,35581.61408,204259603.8,44253.53305,359033056.6,4.799999999e+12,1.42515108,3.8462
4324.112,-17690355.98,206340817.8,-26293.65297,35355.64001,207097759,44061.06521,359033056.6,4.799999999e+12,1.42515108,3.78565
4404.367,-19799720.64,209168901.2,-26272.66532,35122.947,210103922.3,43861.99208,359033056.6,4.799999999e+12,1.42515108,4.01275
4482.629,-21855027.14,211909027.3,-26250.86766,34902.53426,213033044.6,43672.58809,359033056.6,4.799999999e+12,1.42515108,3.9131
4566.356,-24051911.49,214821677.4,-26226.2406,34673.54337,216163936.6,43474.93882,359033056.6,4.799999999e+12,1.42515108,4.18635
4647.135,-26169442.12,217613865.4,-26201.33237,34459.01569,219181737.7,43288.95448,359033056.6,4.799999999e+12,1.42515108,4.03895
4727.486,-28273716.11,220374309.8,-26175.5562,34251.60415,222180646,43108.37655,359033056.6,4.799999999e+12,1.42515108,4.01755
4805.602,-30317438.9,223042212.3,-26149.64228,34055.45135,225093259.7,42936.90206,359033056.6,4.799999999e+12,1.42515108,3.9058
4882.89,-32337477.5,225666955.9,-26123.26233,33866.4971,227972119.9,42771.07037,359033056.6,4.799999999e+12,1.42515108,3.8644
4960.908,-34374501.52,228301873.7,-26095.96701,33680.7259,230875186.8,42607.40301,359033056.6,4.799999999e+12,1.42515108,3.9009
5038.223,-36391046.4,230898935.6,-26068.33071,33501.36739,233749067.9,42448.78659,359033056.6,4.799999999e+12,1.42515108,3.86575
5114.565,-38380096.91,233449879.4,-26040.53443,33328.7231,236583765.3,42295.54607,359033056.6,4.799999999e+12,1.42515108,3.8171
5197.236,-40531632.37,236197635.2,-26009.93334,33146.57388,239650028.4,42133.26468,359033056.6,4.799999999e+12,1.42515108,4.13355
