t,x,y,vx,vy,r,v,energy,h,e,dt_eff
0,7000000,0,0,7600,7000000,7600,-28058754.29,5.32e+10,0.0144233172,0
27.321072,6996964.413,207610.1317,-222.1990289,7596.704241,7000043.783,7599.95314,-28058754.29,5.32e+10,0.0144233172,1.3660536
36.299688,6994641.689,275807.2332,-295.1869718,7594.18247,7000077.285,7599.917284,-28058754.29,5.32e+10,0.0144233172,0.4489308
40.847688,6993215.128,310342.1223,-332.1474965,7592.63367,7000097.86,7599.895263,-28058754.29,5.32e+10,0.0144233172,0.235296
45.511924,6991577.531,345751.8859,-370.0439856,7590.855763,7000121.48,7599.869984,-28058754.29,5.32e+10,0.0144233172,0.24974
50.2404,6989736.976,381640.4186,-408.4524531,7588.857523,7000148.027,7599.841572,-28058754.29,5.32e+10,0.0144233172,0.244832
54.816552,6987782.805,416363.4002,-445.6130933,7586.73595,7000176.212,7599.811406,-28058754.29,5.32e+10,0.0144233172,0.2258262857
59.420688,6985645.094,451288.4933,-482.9895606,7584.415134,7000207.045,7599.778407,-28058754.29,5.32e+10,0.0144233172,0.21222
63.944776,6983376.952,485595.5527,-519.704114,7581.952737,7000239.759,7599.743395,-28058754.29,5.32e+10,0.0144233172,0.219344
68.50057714,6980925.089,520131.4277,-556.6630001,7579.290911,7000275.123,7599.705547,-28058754.29,5.32e+10,0.0144233172,0.2190068572
73.132104,6978259.906,555228.4896,-594.2218507,7576.397527,7000313.564,7599.664407,-28058754.29,5.32e+10,0.0144233172,0.238932
77.617992,6975512.728,589208.7372,-630.5849413,7573.41516,7000353.188,7599.622001,-28058754.29,5.32e+10,0.0144233172,0.223032
82.245288,6972508.072,624245.6967,-668.0781772,7570.153312,7000396.525,7599.575621,-28058754.29,5.32e+10,0.0144233172,0.229144
86.866472,6969334.276,659220.8794,-705.5045888,7566.707889,7000442.301,7599.52663,-28058754.29,5.32e+10,0.0144233172,0.231544
91.525212,6965959.661,694463.7448,-743.2166782,7563.044509,7000490.975,7599.47454,-28058754.29,5.32e+10,0.0144233172,0.236988
96.2833008,6962331.777,730440.0917,-781.7128034,7559.106246,7000543.301,7599.41854,-28058754.29,5.32e+10,0.0144233172,0.2388288
100.92648,6958614.971,765529.0828,-819.258567,7555.071514,7000596.909,7599.361169,-28058754.29,5.32e+10,0.0144233172,0.236664
105.756072,6954564.026,802006.4593,-858.2889841,7550.674132,7000655.337,7599.29864,-28058754.29,5.32e+10,0.0144233172,0.2398848
110.4171771,6950475.706,837190.6765,-895.9347828,7546.236253,7000714.305,7599.235536,-28058754.29,5.32e+10,0.0144233172,0.2279382857
115.049136,6946239.177,872133.9545,-933.3218189,7541.637571,7000775.409,7599.170143,-28058754.29,5.32e+10,0.0144233172,0.249696
119.7766457,6941736.741,907775.6442,-971.4550752,7536.75034,7000840.349,7599.100648,-28058754.29,5.32e+10,0.0144233172,0.2164662857
124.5307851,6937027.204,943594.333,-1009.776607,7531.638406,7000908.277,7599.027956,-28058754.29,5.32e+10,0.0144233172,0.2388994286
129.1685314,6932257.481,978512.2285,-1047.133301,7526.461244,7000977.072,7598.954336,-28058754.29,5.32e+10,0.0144233172,0.2195108571
133.5362297,6927607.133,1011374.578,-1082.289851,7521.413752,7001044.145,7598.882559,-28058754.29,5.32e+10,0.0144233172,0.2160685714
138.0421577,6922648.748,1045253.469,-1118.532826,7516.032024,7001115.662,7598.806029,-28058754.29,5.32e+10,0.0144233172,0.2251405714
142.506504,6917575.127,1078795.411,-1154.41422,7510.525334,7001188.84,7598.727721,-28058754.29,5.32e+10,0.0144233172,0.227892
147.1455703,6912133.294,1113623.609,-1191.670361,7504.619131,7001267.329,7598.643731,-28058754.29,5.32e+10,0.0144233172,0.2325805714
151.813908,6906482.724,1148643.464,-1229.130226,7498.486518,7001348.829,7598.55652,-28058754.29,5.32e+10,0.0144233172,0.232572
156.235488,6900969.643,1181785.457,-1264.580154,7492.503262,7001428.346,7598.471432,-28058754.29,5.32e+10,0.0144233172,0.215976
160.607944,6895363.735,1214532.858,-1299.606796,7486.419401,7001509.202,7598.384912,-28058754.29,5.32e+10,0.0144233172,0.210368
165.131756,6889402.648,1248385.446,-1335.814241,7479.950233,7001595.181,7598.292912,-28058754.29,5.32e+10,0.0144233172,0.21098
169.4807232,6883517.603,1280901.677,-1370.59108,7473.563744,7001680.063,7598.202086,-28058754.29,5.32e+10,0.0144233172,0.2479104
174.175392,6876995.078,1315971.043,-1408.097102,7466.485638,7001774.139,7598.101423,-28058754.29,5.32e+10,0.0144233172,0.24484
178.716996,6870517.735,1349864.97,-1444.344541,7459.456751,7001867.564,7598.001459,-28058754.29,5.32e+10,0.0144233172,0.21582
183.054432,6864177.967,1382205.026,-1478.928824,7452.577336,7001959.004,7597.90362,-28058754.29,5.32e+10,0.0144233172,0.210136
187.293372,6857837.298,1413781.526,-1512.695224,7445.697123,7002050.458,7597.805767,-28058754.29,5.32e+10,0.0144233172,0.211404
191.6206457,6851216.932,1445985.612,-1547.131334,7438.513604,7002145.945,7597.7036,-28058754.29,5.32e+10,0.0144233172,0.2331497143
196.33962,6843827.531,1481068.924,-1584.644581,7430.495863,7002252.525,7597.589567,-28058754.29,5.32e+10,0.0144233172,0.227508
201.043788,6836285.222,1516004.051,-1621.997629,7422.312466,7002361.31,7597.473175,-28058754.29,5.32e+10,0.0144233172,0.232076
205.640592,6828745.404,1550104.234,-1658.456219,7414.132025,7002470.059,7597.356824,-28058754.29,5.32e+10,0.0144233172,0.24444
210.4594937,6820661.468,1585811.156,-1696.630797,7405.361517,7002586.657,7597.232079,-28058754.29,5.32e+10,0.0144233172,0.2238274286
214.977096,6812916.009,1619246.719,-1732.375266,7396.958507,7002698.372,7597.112558,-28058754.29,5.32e+10,0.0144233172,0.21768
219.5107248,6804980.83,1652762.336,-1768.203549,7388.349949,7002812.823,7596.990112,-28058754.29,5.32e+10,0.0144233172,0.2452608
224.008624,6796947.769,1685974.856,-1803.706036,7379.635489,7002928.687,7596.866158,-28058754.29,5.32e+10,0.0144233172,0.22576
228.833256,6788153.785,1721555.948,-1841.738389,7370.095892,7003055.525,7596.730464,-28058754.29,5.32e+10,0.0144233172,0.242104
233.1330768,6780161.847,1753227.458,-1875.590026,7361.426643,7003170.795,7596.607149,-28058754.29,5.32e+10,0.0144233172,0.2464944
237.8843856,6771161.571,1788180.753,-1912.947348,7351.663943,7003300.609,7596.468277,-28058754.29,5.32e+10,0.0144233172,0.2456256
242.687356,6761883.159,1823466.487,-1950.657796,7341.599923,7003434.435,7596.325116,-28058754.29,5.32e+10,0.0144233172,0.21766
247.2229104,6752955.181,1856742.819,-1986.218714,7331.916374,7003563.206,7596.187366,-28058754.29,5.32e+10,0.0144233172,0.2460816
251.9126784,6743554.156,1891103.969,-2022.936799,7321.720127,7003698.8,7596.042319,-28058754.29,5.32e+10,0.0144233172,0.2369568
256.378032,6734443.064,1923776.039,-2057.847896,7311.838715,7003830.212,7595.901748,-28058754.29,5.32e+10,0.0144233172,0.227328
260.987024,6724875.519,1957452.403,-2093.829979,7301.462657,7003968.208,7595.754138,-28058754.29,5.32e+10,0.0144233172,0.235672
265.407336,6715543.96,1989704.84,-2128.288576,7291.342922,7004102.8,7595.610171,-28058754.29,5.32e+10,0.0144233172,0.221748
269.989824,6705709.354,2023092.964,-2163.958371,7280.678071,7004244.647,7595.458446,-28058754.29,5.32e+10,0.0144233172,0.232792
274.490836,6695890.604,2055839.485,-2198.940531,7270.030846,7004386.266,7595.306969,-28058754.29,5.32e+10,0.0144233172,0.2161
278.821896,6686294.058,2087303.948,-2232.551026,7259.62499,7004524.68,7595.158924,-28058754.29,5.32e+10,0.0144233172,0.21556
283.4350512,6675912.485,2120767.829,-2268.295034,7248.368365,7004674.417,7594.99877,-28058754.29,5.32e+10,0.0144233172,0.2470032
288.319952,6664739.771,2156145.883,-2306.081043,7236.254454,7004835.565,7594.826417,-28058754.29,5.32e+10,0.0144233172,0.220112
292.76988,6654401.398,2188321.816,-2340.444621,7225.045665,7004984.678,7594.666937,-28058754.29,5.32e+10,0.0144233172,0.225288
297.120296,6644146.512,2219729.644,-2373.985661,7213.927863,7005132.588,7594.508749,-28058754.29,5.32e+10,0.0144233172,0.216664
301.398232,6633920.3,2250566.707,-2406.91501,7202.841616,7005280.084,7594.351006,-28058754.29,5.32e+10,0.0144233172,0.2134
305.9963328,6622771.803,2283658.381,-2442.249524,7190.75605,7005440.882,7594.179041,-28058754.29,5.32e+10,0.0144233172,0.2410272
310.5042336,6611684.418,2316046.569,-2476.830406,7178.737283,7005600.799,7594.008022,-28058754.29,5.32e+10,0.0144233172,0.2435808
315.2204064,6599918.072,2349872.732,-2512.943961,7165.983121,7005770.509,7593.826535,-28058754.29,5.32e+10,0.0144233172,0.2441184
319.946568,6587956.106,2383709.76,-2549.06636,7153.017549,7005943.04,7593.642035,-28058754.29,5.32e+10,0.0144233172,0.215596
324.647136,6575889.742,2417302.339,-2584.925025,7139.939466,7006117.077,7593.45593,-28058754.29,5.32e+10,0.0144233172,0.236376
329.236212,6563947.124,2450038.431,-2619.86672,7126.996145,7006289.329,7593.271738,-28058754.29,5.32e+10,0.0144233172,0.215444
