t,x,y,vx,vy,r,v,energy,h,e,dt_eff
0,75000000,0,0,58080,75000000,58080,-2323733.333,4.356e+12,0.9972483377,0
889.994,66703142.24,49852326.66,-17408.86302,52293.30368,83274027.52,55114.9537,-2323737.804,4.356e+12,0.9972483324,44.4997
957.505,65495171.92,53357556.12,-18367.21828,51545.32801,84478673.88,54719.97393,-2323737.804,4.356e+12,0.9972483324,3.37555
1022.638,64270257.99,56690926.69,-19236.50538,50808.3332,85700217.22,54327.98416,-2323737.804,4.356e+12,0.9972483324,3.25665
1086.849,63008948.82,59929757.32,-20041.36249,50071.07829,86958055.66,53933.00559,-2323737.804,4.356e+12,0.9972483324,3.21055
1150.583,61707503.48,63097475.37,-20790.39218,49332.39184,88255919.83,53534.3375,-2323737.804,4.356e+12,0.9972483324,3.1867
1214.228,60361773.75,66213656.39,-21490.37821,48591.07509,89597946.53,53131.24255,-2323737.804,4.356e+12,0.9972483324,3.18225
1277.478,58981720.02,69263715.43,-22140.22703,47853.56572,90974202.78,52727.16003,-2323737.804,4.356e+12,0.9972483324,3.1625
1339.772,57583699.71,72222118.82,-22737.43448,47128.86318,92368376.18,52327.05487,-2323737.804,4.356e+12,0.9972483324,3.1147
1407.134,56031587.7,75370531.68,-23337.56448,46349.48719,93916217.27,51893.3221,-2323737.804,4.356e+12,0.9972483324,3.3681
1475.865,54407865.89,78529041.57,-23903.42819,45561.18225,95535471.11,51450.90094,-2323737.804,4.356e+12,0.9972483324,3.43655
1539.703,52866214.75,81414417.58,-24389.22212,44837.0608,97072880.11,51041.12241,-2323737.804,4.356e+12,0.9972483324,3.1919
1605.827,51237918.47,84354688.55,-24854.27826,44096.73861,98696695.84,50618.74657,-2323737.804,4.356e+12,0.9972483324,3.3062
1670.568,49615052.11,87186382,-25274.17009,43382.73285,100315096.6,50208.01911,-2323737.804,4.356e+12,0.9972483324,3.23705
1737.359,47913462.51,90059697.21,-25672.83012,42658.42179,102012004,49787.9017,-2323737.804,4.356e+12,0.9972483324,3.33955
1800.417,46283521.57,92728413.71,-26019.00078,41986.85116,103637459.8,49395.18268,-2323737.804,4.356e+12,0.9972483324,3.1529
1864.746,44599149.31,95407693.14,-26343.81366,41314.63353,105317197.2,48998.93328,-2323737.804,4.356e+12,0.9972483324,3.21645
1927.441,42938280.74,97977715.89,-26634.56857,40672.46702,106973495.6,48617.38184,-2323737.804,4.356e+12,0.9972483324,3.13475
1991.22,41230775.53,100551289.6,-26905.8883,40032.67494,108676302.3,48234.23979,-2323737.804,4.356e+12,0.9972483324,3.18895
2054.11,39530848.37,103049461.3,-27150.83062,39415.33243,110371551.8,47861.63426,-2323737.804,4.356e+12,0.9972483324,3.1445
2115.681,37852287.89,105458033.8,-27370.31652,38824.07949,112045493.4,47502.03548,-2323737.804,4.356e+12,0.9972483324,3.07855
2177.733,36147536.51,107848999.2,-27572.50555,38241.41293,113745553.9,47144.97561,-2323737.804,4.356e+12,0.9972483324,3.1026
2239.929,34426801.45,110209644.8,-27757.26983,37670.68379,115461554,46792.58964,-2323737.804,4.356e+12,0.9972483324,3.1098
2301.707,32706773.44,112519691.3,-27924.23342,37116.89498,117176849.1,46448.10766,-2323737.804,4.356e+12,0.9972483324,3.0889
2363.528,30975704.75,114797499.3,-28075.89403,36575.68353,118903154.4,46108.96281,-2323737.804,4.356e+12,0.9972483324,3.09105
2425.284,29237544.14,117039903.1,-28213.0249,36047.83958,120636532.2,45775.77429,-2323737.804,4.356e+12,0.9972483324,3.0878
2486.625,27503092.97,119235353,-28335.9693,35536.02861,122366210.7,45450.37388,-2323737.804,4.356e+12,0.9972483324,3.06705
2549.685,25712580.69,121460000.2,-28449.51153,35022.63477,124151796.1,45121.6096,-2323737.804,4.356e+12,0.9972483324,3.153
2611.487,23951211.44,123609239.8,-28549.0101,34531.80506,125908318.6,44805.03921,-2323737.804,4.356e+12,0.9972483324,3.0901
2673.218,22186065.86,125726098,-28637.54998,34053.4726,127668607.1,44494.36217,-2323737.804,4.356e+12,0.9972483324,3.08655
2735.034,20413329.19,127816644.6,-28716.09026,33586.17739,129436465.7,44188.74462,-2323737.804,4.356e+12,0.9972483324,3.0908
2796.608,18642998.61,129870642.2,-28784.93972,33132.08378,131201924.9,43889.72238,-2323737.804,4.356e+12,0.9972483324,3.0787
2860.19,16810777.8,131962647.3,-28846.88321,32674.80736,133029104.1,43586.53126,-2323737.804,4.356e+12,0.9972483324,3.1791
2921.839,15030759.47,133963633.8,-28898.67697,32242.43077,134804224.4,43297.89686,-2323737.804,4.356e+12,0.9972483324,3.08245
2984.684,13213168.24,135976343.9,-28943.68008,31812.52188,136616814.2,43008.98935,-2323737.804,4.356e+12,0.9972483324,3.14225
3047.969,11380229.89,137976185.5,-28981.59713,31390.38314,138444708.8,42723.40255,-2323737.804,4.356e+12,0.9972483324,3.16425
3117.967,9350341.734,140157462.4,-29015.51231,30935.70603,140469011.4,42413.65184,-2323737.804,4.356e+12,0.9972483324,3.4999
3190.184,7253911.917,142375001.3,-29042.3393,30479.67858,142559672.5,42100.69214,-2323737.804,4.356e+12,0.9972483324,3.61085
3253.153,5424575.88,144282036.9,-29059.47837,30092.5407,144383974.8,41833.17211,-2323737.804,4.356e+12,0.9972483324,3.14845
3318.742,3518165.487,146242827.2,-29071.5982,29699.36645,146285139.4,41559.71836,-2323737.804,4.356e+12,0.9972483324,3.27945
3381.865,1682847.279,148105847.1,-29078.13242,29330.38988,148115407.4,41301.44738,-2323737.804,4.356e+12,0.9972483324,3.15615
3444.961,-151948.9655,149945077.9,-29079.9945,28970.52204,149945154.9,41047.98689,-2323737.804,4.356e+12,0.9972483324,3.1548
3507.941,-1983351.16,151758557.9,-29077.52629,28619.97292,151771517.7,40799.57579,-2323737.804,4.356e+12,0.9972483324,3.149
3571.39,-3828104.157,153563487.5,-29070.97806,28275.29541,153611194.5,40553.84194,-2323737.804,4.356e+12,0.9972483324,3.17245
3635.529,-5692371.858,155366087.5,-29060.51091,27935.25874,155470332.3,40309.94884,-2323737.804,4.356e+12,0.9972483324,3.20695
3699.762,-7558582.001,157149736.1,-29046.43063,27602.91657,157331407.3,40070.1402,-2323737.804,4.356e+12,0.9972483324,3.21165
3762.802,-9389147.311,158879747,-29029.36356,27284.47328,159156935.5,39839.0064,-2323737.804,4.356e+12,0.9972483324,3.152
3831.266,-11375882.89,160736150.7,-29007.45234,26947.02762,161138204.2,39592.60775,-2323737.804,4.356e+12,0.9972483324,3.4232
3894.413,-13206901.28,162428147.5,-28984.3568,26643.29608,162964184.2,39369.50806,-2323737.804,4.356e+12,0.9972483324,3.15735
3958.18,-15054333.6,164117520,-28958.43351,26343.66296,164806533,39148.17301,-2323737.804,4.356e+12,0.9972483324,3.18835
4021.985,-16901133.99,165788996.7,-28930.07002,26050.75401,166648251.6,38930.5887,-2323737.804,4.356e+12,0.9972483324,3.19025
4085.614,-18740965.75,167437464.4,-28899.5474,25765.3178,168483020.7,38717.37906,-2323737.804,4.356e+12,0.9972483324,3.18145
4149.42,-20583898.17,169072487.4,-28866.86277,25485.56577,170320882,38507.26982,-2323737.804,4.356e+12,0.9972483324,3.1903
4213.256,-22425547.89,170690618.5,-28832.23694,25211.97519,172157464.1,38300.67336,-2323737.804,4.356e+12,0.9972483324,3.1918
4276.695,-24253497.65,172281577.2,-28796.06182,24946.13173,173980383.9,38098.85384,-2323737.804,4.356e+12,0.9972483324,3.17195
4339.987,-26074872.78,173852228.5,-28758.35033,24686.72804,175796747.2,37900.88726,-2323737.804,4.356e+12,0.9972483324,3.1646
4404.037,-27915582.07,175425160.1,-28718.66593,24429.96053,177632391.5,37703.90887,-2323737.804,4.356e+12,0.9972483324,3.2025
4467.121,-29726000.92,176958467.5,-28678.19982,24182.54283,179437828.6,37513.12467,-2323737.804,4.356e+12,0.9972483324,3.1542
4530.736,-31549032.51,178489045.8,-28636.11471,23938.38197,181255843.8,37323.89579,-2323737.804,4.356e+12,0.9972483324,3.18075
4594.005,-33359455.56,179996057.9,-28593.08595,23700.70921,183061285.2,37138.76925,-2323737.804,4.356e+12,0.9972483324,3.16345
4657.379,-35170119.38,181490655.6,-28548.90775,23467.64807,184866966.7,36956.33423,-2323737.804,4.356e+12,0.9972483324,3.1687
4720.328,-36965837.44,182960761,-28504.04466,23240.96416,186657743.5,36778.02302,-2323737.804,4.356e+12,0.9972483324,3.14745
4784.736,-38800222.63,184450325.2,-28457.21397,23013.84655,188487081.1,36598.49942,-2323737.804,4.356e+12,0.9972483324,3.2204
4846.385,-40553178.77,185862519.6,-28411.58438,22800.89225,190235213.6,36429.36747,-2323737.804,4.356e+12,0.9972483324,3.08245
4908.687,-42321821.71,187276468.1,-28364.74017,22589.96234,191998989.8,36261.06567,-2323737.804,4.356e+12,0.9972483324,3.1151
4971.986,-44115756.81,188699720.5,-28316.4591,22379.9384,193787988.6,36092.707,-2323737.804,4.356e+12,0.9972483324,3.16495
5033.703,-45861895.27,190074728.5,-28268.77747,22179.20123,195529322.3,35931.05546,-2323737.804,4.356e+12,0.9972483324,3.08585
5096.839,-47645118.06,191468657.5,-28219.43651,21977.8577,197307638.2,35768.18175,-2323737.804,4.356e+12,0.9972483324,3.1568
