t,x,y,vx,vy,r,v,energy,h,e,dt_eff
0,27000000,0,0,28140,27000000,28140,142812170.4,7.5978e+11,2.128425314,0
32.256,26995124.12,907629.2089,-302.2568167,28134.9202,27010377.95,28136.54374,142812170.4,7.5978e+11,2.128425314,1.6128
147.295,26898771.24,4139716.479,-1368.211558,28035.33237,27215457.86,28068.69901,142812170.4,7.5978e+11,2.128425314,5.75195
255.345,26698529.13,7158897.429,-2329.594588,27833.09402,27641658.24,27930.41592,142812170.4,7.5978e+11,2.128425314,5.4025
352.787,26431402.43,9858870.849,-3143.540393,27572.81772,28210217.46,27751.43461,142812170.4,7.5978e+11,2.128425314,4.8721
451.109,26084525.7,12554451.5,-3900.943855,27250.09447,28948518.67,27527.89516,142812170.4,7.5978e+11,2.128425314,4.9161
551.11,25658937.86,15261099.53,-4598.079729,26875.94676,29854350.62,27266.44185,142812170.4,7.5978e+11,2.128425314,5.00005
648.592,25180575.85,17861981.3,-5204.224397,26481.61206,30872508.42,26988.14052,142812170.4,7.5978e+11,2.128425314,4.8741
747.1,24640723.14,20450283.17,-5744.54123,26066.70679,32021544.6,26692.18906,142812170.4,7.5978e+11,2.128425314,4.9254
845.952,24048920.99,23006182.43,-6217.911261,25644.79295,33281151.28,26387.8348,142812170.4,7.5978e+11,2.128425314,4.9426
952.93,23359513.14,25725312.5,-6659.212043,25191.86447,34748504.39,26057.15143,142812170.4,7.5978e+11,2.128425314,5.3489
1054.047,22667660.64,28251414.2,-7015.802088,24774.22255,36221060.77,25748.46756,142812170.4,7.5978e+11,2.128425314,5.05585
1152.532,21961675.99,30671844.66,-7313.477964,24381.66104,37723696.36,25454.90827,142812170.4,7.5978e+11,2.128425314,4.92425
1250.935,21229144.83,33052450.36,-7568.314121,24006.08584,39282834.23,25170.84695,142812170.4,7.5978e+11,2.128425314,4.92015
1353.235,20443034.73,35489113.23,-7794.276349,23634.84926,40956010.87,24886.88095,142812170.4,7.5978e+11,2.128425314,5.115
1465.827,19553310.83,38128292.5,-8003.826253,23249.65708,42849721.74,24588.77364,142812170.4,7.5978e+11,2.128425314,5.6296
1575.46,18666192.46,40657739.56,-8174.591582,22898.05944,44737886.93,24313.47514,142812170.4,7.5978e+11,2.128425314,5.48165
1690.19,17719495.13,43264876.65,-8323.875475,22554.17276,46752861.5,24041.16495,142812170.4,7.5978e+11,2.128425314,5.7365
1807.253,16737444.05,45885780.04,-8450.323667,22227.42648,48843083.88,23779.53864,142812170.4,7.5978e+11,2.128425314,5.85315
1923.78,15746486.48,48458036.22,-8554.618249,21924.89096,50952263.05,23534.70495,142812170.4,7.5978e+11,2.128425314,5.82635
2035.646,14784718.82,50895376.42,-8637.864492,21654.29314,52999313.69,23313.53929,142812170.4,7.5978e+11,2.128425314,5.5933
2151.306,13781395.79,53384647.65,-8709.411003,21393.41812,55134811.82,23098.3155,142812170.4,7.5978e+11,2.128425314,5.783
2264.714,12790279.85,55797149.02,-8767.541872,21154.82717,57244328.08,22899.70531,142812170.4,7.5978e+11,2.128425314,5.6704
2381.064,11767217.1,58245066.38,-8816.807225,20926.31383,59421840.74,22707.85547,142812170.4,7.5978e+11,2.128425314,5.8175
2489.82,10806203.62,60509943.22,-8854.845913,20726.4072,61467286.14,22538.68345,142812170.4,7.5978e+11,2.128425314,5.4378
2602.983,9802254.753,62844247.28,-8887.479404,20531.30139,63604116.33,22372.34067,142812170.4,7.5978e+11,2.128425314,5.65815
2723.739,8727271.694,65311626.16,-8915.694996,20336.41987,65892137.49,22204.94518,142812170.4,7.5978e+11,2.128425314,6.0378
2837.901,7708173.177,67623314.93,-8937.068277,20163.76822,68061212.57,22055.58292,142812170.4,7.5978e+11,2.128425314,5.7081
2950.334,6702371.717,69881306.74,-8953.852207,20003.83045,70201985.86,21916.31132,142812170.4,7.5978e+11,2.128425314,5.62165
3065.647,5669065.832,72179013.37,-8967.324323,19849.36868,72401300.26,21780.96285,142812170.4,7.5978e+11,2.128425314,5.76565
3179.152,4650628.862,74423803.54,-8977.430149,19706.04514,74568967.29,21654.61769,142812170.4,7.5978e+11,2.128425314,5.67525
3286.488,3686626.971,76532030.45,-8984.52262,19577.8531,76620773.31,21540.9837,142812170.4,7.5978e+11,2.128425314,5.3668
3387.176,2781738.772,78497487.08,-8989.298022,19463.61578,78546760.26,21439.21217,142812170.4,7.5978e+11,2.128425314,5.0344
3495.51,1807693.709,80599673.46,-8992.679187,19346.74764,80619942.43,21334.59452,142812170.4,7.5978e+11,2.128425314,5.4167
3608.598,790609.9569,82780953.91,-8994.530434,19230.96276,82784729.24,21230.4382,142812170.4,7.5978e+11,2.128425314,5.6544
3721.632,-226111.9978,84948445.06,-8994.908777,19121.11711,84948745.98,21131.15007,142812170.4,7.5978e+11,2.128425314,5.6517
3836.728,-1261349.223,87143042.9,-8993.998523,19014.87601,87152171.1,21034.67421,142812170.4,7.5978e+11,2.128425314,5.7548
3947.622,-2258631.174,89246235.26,-8992.061449,18917.48953,89274811.25,20945.84874,142812170.4,7.5978e+11,2.128425314,5.5447
4063.878,-3303847.435,91439809.16,-8989.075037,18820.27158,91499476,20856.79967,142812170.4,7.5978e+11,2.128425314,5.8128
4177.372,-4323849.226,93570625.51,-8985.352476,18729.85096,93670473.63,20773.63416,142812170.4,7.5978e+11,2.128425314,5.6747
4287.2,-5310464.475,95623064.66,-8981.101637,18646.29035,95770410.5,20696.48111,142812170.4,7.5978e+11,2.128425314,5.4914
4405.885,-6376083.466,97830942.07,-8975.897309,18560.05967,98038500.94,20616.56003,142812170.4,7.5978e+11,2.128425314,5.93425
4521.503,-7413540.276,99972147.68,-8970.310047,18479.85654,100246650.3,20541.94635,142812170.4,7.5978e+11,2.128425314,5.7809
4639.155,-8468558.773,102141715.9,-8964.183283,18401.83988,102492178.4,20469.10582,142812170.4,7.5978e+11,2.128425314,5.8826
4749.226,-9454924.022,104163350.9,-8958.112406,18331.93006,104591583.1,20403.61335,142812170.4,7.5978e+11,2.128425314,5.50355
4863.497,-10478202.39,106254153.3,-8951.519973,18262.30951,106769554.7,20338.18228,142812170.4,7.5978e+11,2.128425314,5.71355
4980.409,-11524335.65,108385215.9,-8944.521377,18194.01022,108996171.2,20273.78777,142812170.4,7.5978e+11,2.128425314,5.8456
5090.512,-12508782.37,110385008.4,-8937.737494,18132.23873,111091492.5,20215.37121,142812170.4,7.5978e+11,2.128425314,5.50515
5202.481,-13509138.26,112411852.1,-8930.682797,18071.81106,113220675.3,20158.06167,142812170.4,7.5978e+11,2.128425314,5.59845
5314.052,-14505145.36,114424889.1,-8923.52794,18013.86255,115340602,20102.9499,142812170.4,7.5978e+11,2.128425314,5.57855
5413.768,-15394641.46,116218653.7,-8917.049867,17963.88249,117233828.1,20055.29487,142812170.4,7.5978e+11,2.128425314,4.9858
5511.764,-16268162.25,117976700.6,-8910.624111,17916.34659,119093051.8,20009.86499,142812170.4,7.5978e+11,2.128425314,4.8998
5611.564,-17157114.04,119762400.3,-8904.034546,17869.4709,120985119.3,19964.96485,142812170.4,7.5978e+11,2.128425314,4.99
5711.982,-18050905.05,121554511.3,-8897.371433,17823.7953,122887486.7,19921.11687,142812170.4,7.5978e+11,2.128425314,5.0209
5810.982,-18931418.78,123316896,-8890.782169,17780.16026,124761594.4,19879.13747,142812170.4,7.5978e+11,2.128425314,4.95
5912.121,-19830282.72,125112967,-8884.04066,17736.94762,126674759.2,19837.47689,142812170.4,7.5978e+11,2.128425314,5.05695
6012.93,-20725535.24,126898895.3,-8877.320917,17695.18679,128580237.3,19797.13268,142812170.4,7.5978e+11,2.128425314,5.04045
6112.693,-21610832,128662210.2,-8870.679135,17655.08996,130464525.4,19758.31849,142812170.4,7.5978e+11,2.128425314,4.98815
6213.193,-22501999.67,130434566.7,-8864.00408,17615.88023,132361309.2,19720.28916,142812170.4,7.5978e+11,2.128425314,5.025
6318.354,-23433780.97,132284966.2,-8857.043639,17576.06761,134344536.1,19681.5999,142812170.4,7.5978e+11,2.128425314,5.25805
6425.148,-24379284.05,134159880.2,-8850.007221,17536.8525,136356968.8,19643.41679,142812170.4,7.5978e+11,2.128425314,5.3397
6531.071,-25316335.4,136015427.6,-8843.066175,17499.1135,138351412.6,19606.60075,142812170.4,7.5978e+11,2.128425314,5.29615
6641.79,-26295031.29,137950782.4,-8835.85696,17460.84176,140434493.7,19569.19424,142812170.4,7.5978e+11,2.128425314,5.53595
6748.926,-27241298.18,139819532.5,-8828.930703,17424.90246,142448552.1,19534.00223,142812170.4,7.5978e+11,2.128425314,5.3568
6866.132,-28275660.7,141859588.8,-8821.414182,17386.76218,144650115.5,19496.58553,142812170.4,7.5978e+11,2.128425314,5.8603
6974.031,-29227111.85,143733756.1,-8814.554414,17352.69009,146675208.2,19463.099,142812170.4,7.5978e+11,2.128425314,5.39495
7085.687,-30210916.38,145669366.3,-8807.519515,17318.43484,148769162.7,19429.37429,142812170.4,7.5978e+11,2.128425314,5.5828
7199.026,-31208750.41,147630297.3,-8800.447704,17284.66227,150892977.9,19396.06737,142812170.4,7.5978e+11,2.128425314,5.66695
7306.409,-32153412.12,149484698.3,-8793.813972,17253.55389,152903619.8,19365.33723,142812170.4,7.5978e+11,2.128425314,5.36915
7415.437,-33111819.97,151364135.6,-8787.146576,17222.81791,154943519.3,19334.92699,142812170.4,7.5978e+11,2.128425314,5.4514
7531.935,-34135093.72,153368690.4,-8780.099683,17190.88263,157121481.1,19303.27941,142812170.4,7.5978e+11,2.128425314,5.8249
7645.684,-35133433.67,155322404,-8773.297482,17160.56738,159246373.1,19273.18919,142812170.4,7.5978e+11,2.128425314,5.68745
7770.654,-36229370.35,157464927.9,-8765.91479,17128.20661,161578992.5,19241.0167,142812170.4,7.5978e+11,2.128425314,6.2485
7887.087,-37249615.88,159457503,-8759.122548,17098.90948,163750508.9,19211.84357,142812170.4,7.5978e+11,2.128425314,5.82165
8001.679,-38252962.14,161415286.2,-8752.519342,17070.8457,165886056.4,19183.85696,142812170.4,7.5978e+11,2.128425314,5.7296
8115.569,-39249416.67,163357931.1,-8746.037117,17043.68079,168006935.5,19156.72781,142812170.4,7.5978e+11,2.128425314,5.6945
8240.634,-40342799.46,165487675.3,-8739.011441,17014.65185,170334119.1,19127.69454,142812170.4,7.5978e+11,2.128425314,6.25325
