t,x,y,vx,vy,r,v,energy,h,e,dt_eff
0,7000000,0,0,-7546,7000000,7546,-28467696.29,5.2822e+10,5.904088222e-05,0
30.136,6996306.714,-227366.2605,-245.0863511,-7542.018638,7000000.218,7545.999765,-28467696.29,5.2822e+10,5.904088222e-05,1.5068
105.341,6954917.499,-793195.9656,-855.014445,-7497.401083,7000002.662,7545.997131,-28467696.29,5.2822e+10,5.90408822e-05,3.76025
179.6,6869221.786,-1346811.107,-1451.775058,-7405.02124,7000007.721,7545.991677,-28467696.29,5.2822e+10,5.904088215e-05,3.71295
253.351,6740567.928,-1888109.754,-2035.257698,-7266.332839,7000015.317,7545.983489,-28467696.29,5.2822e+10,5.904088207e-05,3.68755
326.817,6570075.76,-2415462.661,-2603.705582,-7082.54335,7000025.383,7545.972639,-28467696.29,5.2822e+10,5.904088198e-05,3.6733
400.051,6359132.041,-2926084.314,-3154.115618,-6855.148075,7000037.837,7545.959214,-28467696.29,5.2822e+10,5.904088186e-05,3.6617
473.03,6109517.937,-3416800.641,-3683.065976,-6586.067546,7000052.575,7545.943328,-28467696.29,5.2822e+10,5.904088173e-05,3.64895
547.81,5814557.716,-3897678.594,-4201.407459,-6268.105995,7000069.99,7545.924556,-28467696.29,5.2822e+10,5.904088155e-05,3.739
621.595,5486501.661,-4347361.332,-4686.119019,-5914.469618,7000089.358,7545.903678,-28467696.29,5.2822e+10,5.904088137e-05,3.68925
696.196,5119558.912,-4774062.304,-5146.053713,-5518.916657,7000111.023,7545.880325,-28467696.29,5.2822e+10,5.904088115e-05,3.73005
769.895,4724551.88,-5165316.097,-5567.775162,-5093.114002,7000134.344,7545.855187,-28467696.29,5.2822e+10,5.904088093e-05,3.68495
845.023,4291229.165,-5530604.964,-5961.503969,-4626.011753,7000159.928,7545.82761,-28467696.29,5.2822e+10,5.904088067e-05,3.7564
919.792,3832046.225,-5858160.147,-6314.555088,-4131.037078,7000187.039,7545.798387,-28467696.29,5.2822e+10,5.90408804e-05,3.73845
994.728,3346878.56,-6148286.226,-6627.257062,-3608.056424,7000215.683,7545.76751,-28467696.29,5.2822e+10,5.904088011e-05,3.7468
1073.336,2814538.769,-6409510.993,-6908.80104,-3034.232067,7000247.113,7545.733632,-28467696.29,5.2822e+10,5.904087973e-05,3.9304
1160.949,2197595.663,-6646393.226,-7164.098721,-2369.217813,7000283.538,7545.69437,-28467696.29,5.2822e+10,5.904087904e-05,4.38065
1249.498,1554182.065,-6825614.959,-7357.240594,-1675.677903,7000321.526,7545.653424,-28467696.29,5.2822e+10,5.904087829e-05,4.42745
1339.895,882789.4618,-6944475.446,-7485.316362,-951.9872584,7000361.165,7545.610697,-28467696.29,5.2822e+10,5.904087745e-05,4.51985
1429.077,212186.015,-6997184.282,-7542.087545,-229.1554224,7000400.758,7545.56802,-28467696.29,5.2822e+10,5.904087665e-05,4.4591
1507.545,-379679.6604,-6990131.857,-7534.448306,408.7995413,7000435.703,7545.530355,-28467696.29,5.2822e+10,5.904087623e-05,3.9234
1586.74,-974263.4754,-6932344.64,-7472.12377,1049.677897,7000470.808,7545.492517,-28467696.29,5.2822e+10,5.904087579e-05,3.95975
1662.665,-1537690.857,-6829536.156,-7361.27524,1656.968035,7000504.073,7545.456661,-28467696.29,5.2822e+10,5.904087543e-05,3.79625
1739.06,-2094210.179,-6679955.167,-7200.01427,2256.806655,7000536.93,7545.421246,-28467696.29,5.2822e+10,5.904087508e-05,3.81975
1814.355,-2628847.574,-6488229.319,-6993.330326,2833.054764,7000568.496,7545.387223,-28467696.29,5.2822e+10,5.904087476e-05,3.76475
1894.246,-3177121.362,-6238133.722,-6723.733992,3423.995185,7000600.866,7545.352332,-28467696.29,5.2822e+10,5.904087434e-05,3.99455
1982.226,-3753515.367,-5909315.641,-6369.288487,4045.238246,7000634.897,7545.315652,-28467696.29,5.2822e+10,5.904087369e-05,4.399
2076.178,-4331672.293,-5499634.719,-5927.689673,4668.375331,7000669.032,7545.278861,-28467696.29,5.2822e+10,5.904087284e-05,4.6976
2160.893,-4815095.18,-5081793.476,-5477.304118,5189.403478,7000697.574,7545.248098,-28467696.29,5.2822e+10,5.904087238e-05,4.23575
2249.94,-5279924.725,-4597014.865,-4954.776274,5690.387909,7000725.018,7545.218518,-28467696.29,5.2822e+10,5.904087183e-05,4.45235
2337.983,-5691749.696,-4076085.942,-4393.290944,6134.241737,7000749.332,7545.192311,-28467696.29,5.2822e+10,5.904087137e-05,4.40215
2422.173,-6037697.656,-3543583.526,-3819.337525,6507.092721,7000769.757,7545.170296,-28467696.29,5.2822e+10,5.904087104e-05,4.2095
2511.132,-6349211.397,-2949330.321,-3178.832471,6842.829808,7000788.149,7545.150473,-28467696.29,5.2822e+10,5.904087068e-05,4.44795
2596.523,-6593401.803,-2353357.015,-2536.478276,7106.007256,7000802.566,7545.134934,-28467696.29,5.2822e+10,5.904087044e-05,4.26955
2686.166,-6789676.377,-1706368.519,-1839.142759,7317.542389,7000814.155,7545.122444,-28467696.29,5.2822e+10,5.904087021e-05,4.48215
2772.363,-6918698.394,-1069166.973,-1152.358671,7456.595624,7000821.772,7545.114234,-28467696.29,5.2822e+10,5.904087008e-05,4.30985
2856.247,-6986974.908,-440163.116,-474.4118588,7530.180385,7000825.803,7545.109889,-28467696.29,5.2822e+10,5.904087002e-05,4.1942
2919.3998,-7000733.844,36040.95529,38.84526893,7545.009017,7000826.616,7545.109014,-28467696.29,5.2822e+10,5.904087001e-05,3.94705
3003.4992,-6968733.215,669555.2431,721.6529164,7510.520476,7000824.726,7545.11105,-28467696.29,5.2822e+10,5.904087005e-05,4.26945
3086.5114,-6881034.563,1289510.642,1389.847684,7416.003532,7000819.548,7545.116631,-28467696.29,5.2822e+10,5.904087013e-05,4.1209
3171.3478,-6734545.231,1912394.778,2061.201086,7258.124807,7000810.9,7545.125952,-28467696.29,5.2822e+10,5.904087027e-05,4.27205
3254.6528,-6535941.196,2508517.839,2703.713906,7044.078894,7000799.174,7545.138591,-28467696.29,5.2822e+10,5.904087046e-05,4.13855
3338.8102,-6281847.924,3090204.796,3330.670985,6770.228293,7000784.172,7545.15476,-28467696.29,5.2822e+10,5.90408707e-05,4.2252
3421.9414,-5980137.797,3639873.835,3923.122842,6445.056807,7000766.359,7545.173959,-28467696.29,5.2822e+10,5.904087097e-05,4.1394
3505.8334,-5627038.937,4164957.445,4489.080964,6064.498433,7000745.511,7545.196429,-28467696.29,5.2822e+10,5.904087131e-05,4.2084
3591.0574,-5221277.711,4663513.842,5026.453002,5627.179491,7000721.555,7545.22225,-28467696.29,5.2822e+10,5.904087171e-05,4.2744
3675.6998,-4774704.516,5119758.775,5518.226096,5145.871004,7000695.189,7545.250668,-28467696.29,5.2822e+10,5.904087215e-05,4.22155
3760.4212,-4287949.795,5533788.694,5964.504165,4621.251469,7000666.45,7545.281643,-28467696.29,5.2822e+10,5.904087262e-05,4.2397
3844.952,-3766678.331,5900935.027,6360.254831,4059.425346,7000635.674,7545.314815,-28467696.29,5.2822e+10,5.904087312e-05,4.22325
3928.5698,-3220280.309,6215966.771,6699.839041,3470.512527,7000603.414,7545.349586,-28467696.29,5.2822e+10,5.904087363e-05,4.1703
4012.6398,-2644583.876,6481832.179,6986.434249,2850.01574,7000569.425,7545.386221,-28467696.29,5.2822e+10,5.904087417e-05,4.2118
4097.1718,-2043854.122,6695531.048,7216.805856,2202.53113,7000533.957,7545.42445,-28467696.29,5.2822e+10,5.904087475e-05,4.2303
4181.949,-1424357.711,6854062.204,7387.717917,1534.81238,7000497.381,7545.463874,-28467696.29,5.2822e+10,5.904087535e-05,4.241
4266.4474,-795066.571,6955164.451,7496.73175,856.5293242,7000460.228,7545.50392,-28467696.29,5.2822e+10,5.904087596e-05,4.2209
4351.0822,-158155.8733,6998635.841,7543.628582,170.0261776,7000422.624,7545.544452,-28467696.29,5.2822e+10,5.904087657e-05,4.23445
4435.4168,477810.2135,6984059.608,7527.957657,-515.4661656,7000385.076,7545.584924,-28467696.29,5.2822e+10,5.904087718e-05,4.2123
4519.978,1111518.896,6911540.575,7449.830871,-1198.532622,7000347.661,7545.625253,-28467696.29,5.2822e+10,5.904087779e-05,4.232
4605.0284,1739575.345,6780724.581,7308.865273,-1875.513813,7000310.58,7545.665222,-28467696.29,5.2822e+10,5.904087841e-05,4.25765
4690.123,2353336.033,6592848.428,7106.392509,-2537.092552,7000274.343,7545.704281,-28467696.29,5.2822e+10,5.904087901e-05,4.254
4777.6558,2963988.592,6341774.81,6835.79694,-3195.327805,7000238.29,7545.743143,-28467696.29,5.2822e+10,5.904087969e-05,4.4073
4866.2538,3555200.104,6030207.263,6499.990797,-3832.613604,7000203.384,7545.780768,-28467696.29,5.2822e+10,5.904088037e-05,4.43555
4954.2536,4110357.969,5666334.432,6107.799037,-4431.04181,7000170.607,7545.816099,-28467696.29,5.2822e+10,5.9040881e-05,4.3911
5043.678,4636617.513,5244400.019,5653.016769,-4998.324464,7000139.536,7545.84959,-28467696.29,5.2822e+10,5.904088163e-05,4.49125
5132.3982,5116202.956,4777658.884,5149.93039,-5515.299052,7000111.221,7545.880112,-28467696.29,5.2822e+10,5.904088218e-05,4.4222
5222.0286,5553214.759,4261807.33,4593.901012,-5986.384542,7000085.419,7545.907924,-28467696.29,5.2822e+10,5.904088271e-05,4.49635
5309.6508,5930391.831,3719050.53,4008.863616,-6392.972796,7000063.151,7545.931928,-28467696.29,5.2822e+10,5.904088313e-05,4.3523
5398.988,6260501.257,3131570.734,3375.612897,-6748.825327,7000043.661,7545.952937,-28467696.29,5.2822e+10,5.904088352e-05,4.4955
5486.6804,6528126.032,2526650.064,2723.557127,-7037.321887,7000027.86,7545.969969,-28467696.29,5.2822e+10,5.904088381e-05,4.3569
5575.6896,6740149.526,1889602.91,2036.867214,-7265.881803,7000015.342,7545.983463,-28467696.29,5.2822e+10,5.904088406e-05,4.47385
5666.5306,6892595.169,1221564.824,1316.767944,-7430.217697,7000006.341,7545.993165,-28467696.29,5.2822e+10,5.904088425e-05,4.5591
5754.043,6977011.35,566861.2045,611.0401836,-7521.21824,7000001.357,7545.998537,-28467696.29,5.2822e+10,5.904088434e-05,4.32975
