t,x,y,vx,vy,r,v,energy,h,e,dt_eff
0,2000000,0,0,1728,2000000,1728,-1487616.4,3456000000,0.001803524408,0
205.515,1970182.507,353540.748,-304.557689,1702.259907,2001651.86,1729.290079,-1482926.569,3461436243,0.004160623021,10.27575
264.475,1949814.841,453435.2248,-390.4848335,1684.685013,2001844.504,1729.347275,-1482541.061,3461883420,0.004353059569,2.947999999
319.452,1926274.356,545540.8827,-469.6882072,1664.372484,2002035.901,1729.376413,-1482205.984,3462272154,0.004519153048,2.74885
377.304,1896837.239,641149.9366,-551.876935,1638.973867,2002264.905,1729.393966,-1481835.076,3462702526,0.004701451609,2.892600001
433.413,1863776.337,732368.6583,-630.2621316,1610.452376,2002504.953,1729.389259,-1481486.323,3463107262,0.004871163273,2.80545
494.101,1823122.11,829114.8761,-713.3613597,1575.386582,2002799.467,1729.371942,-1481078.518,3463580625,0.00506733344,3.034399999
551.015,1780454.88,917799.3877,-789.499226,1538.592716,2003091.435,1729.328359,-1480720.046,3463996815,0.00523756431,2.845700001
606.98,1734321.063,1002865.759,-862.4940585,1498.818994,2003399.431,1729.264114,-1480373.622,3464399108,0.005399815983,2.79825
664.627,1682589.353,1088064.611,-935.5617807,1454.231314,2003744.377,1729.180315,-1480006.288,3464825790,0.00556927884,2.88235
720.663,1628322.58,1168324.759,-1004.351668,1407.472881,2004100.089,1729.075529,-1479659.429,3465228794,0.005726705454,2.801800001
776.567,1570404.201,1245698.127,-1070.623442,1357.584315,2004478.281,1728.95047,-1479314.447,3465629728,0.005880581635,2.7952
834.806,1506202.429,1323249.248,-1136.998012,1302.303623,2004902.574,1728.802824,-1478940.337,3466064645,0.006044338364,2.91195
890.648,1441081.336,1394499.265,-1197.929481,1246.253399,2005328.805,1728.636045,-1478596.675,3466464293,0.00619178679,2.7921
946.693,1372376.734,1462784.944,-1256.274295,1187.143056,2005781.068,1728.448362,-1478250.812,3466866634,0.006337082911,2.802249999
1006.66,1295339.216,1532102.358,-1315.440236,1120.893952,2006300.406,1728.232121,-1477855.231,3467326980,0.006499515233,2.998350001
1063.555,1219053.087,1594115.665,-1368.310812,1055.323527,2006812.194,1727.999486,-1477499.509,3467741102,0.00664209071,2.844750001
1121.297,1138648.311,1653169.417,-1418.59472,986.2482945,2007358.736,1727.743233,-1477133.508,3468167361,0.006785100788,2.887099999
1183.442,1048986.771,1712200.967,-1468.784374,909.2647681,2007985.408,1727.451868,-1476710.062,3468660739,0.006946071133,3.107250001
1241.923,961867.4198,1763309.484,-1512.162043,834.5096455,2008593.853,1727.148051,-1476335.546,3469097310,0.007084369034,2.924049999
1301.238,871024.6362,1810623.402,-1552.239912,756.6079319,2009238.916,1726.81913,-1475950.763,3469546059,0.007222187683,2.96575
1359.04,780317.9957,1852230.724,-1587.402037,678.8732647,2009889.258,1726.474482,-1475585.845,3469971848,0.007348757626,2.890100001
1416.56,688142.2556,1889129.772,-1618.498987,599.9319254,2010559.887,1726.11045,-1475224.97,3470393130,0.007469765179,2.876
1481.111,582713.5545,1925098.134,-1648.700234,509.7074615,2011357.232,1725.69237,-1474771.163,3470923191,0.007616465515,3.22755
1546.49,474104.9954,1955545.62,-1674.13151,416.8397735,2012196.367,1725.245405,-1474306.42,3471466360,0.007760888186,3.26895
1612.087,363627.6188,1979954.004,-1694.361593,322.4576982,2013068.033,1724.7725,-1473839.395,3472012546,0.007900047475,3.27985
1685.674,238331.9027,1999950.536,-1710.708888,215.5224921,2014101.349,1724.231667,-1473252.814,3472699042,0.008067078305,3.67935
1750.882,126478.278,2011052.736,-1719.517291,120.1586365,2015026.02,1723.710478,-1472793.14,3473237410,0.008191842698,3.260399999
1819.547,8259.129346,2016020.017,-1723.034876,19.47102822,2016036.935,1723.144888,-1472284.452,3473833614,0.008322971599,3.43325
1886.272,-106670.0491,2014218.905,-1720.787477,-78.30864664,2017041.471,1722.568369,-1471805.104,3474395855,0.008439897577,3.33625
1951.414,-218560.2986,2006172.591,-1713.228853,-173.3995304,2018042.881,1721.981562,-1471349.181,3474931020,0.00854472511,3.257100001
2021.817,-338742.0401,1990547.474,-1699.160372,-275.4185813,2019164.534,1721.337086,-1470817.813,3475555238,0.00865929086,3.52015
2093.797,-460379.0568,1967188.735,-1678.504097,-378.5410933,2020341.653,1720.659572,-1470263.695,3476206742,0.008770681391,3.599
2166.104,-580855.5173,1936303.517,-1651.465051,-480.5421395,2021550.01,1719.958593,-1469705.91,3476863140,0.008874562807,3.61535
2235.529,-694492.856,1899762.021,-1619.680783,-576.6211331,2022724.91,1719.260821,-1469192.975,3477467295,0.008962440582,3.47125
2301.224,-799825.867,1859094.293,-1584.468197,-665.5594434,2023846.093,1718.577563,-1468734.775,3478007442,0.009034077331,3.284750001
2367.674,-903860.6676,1812085.799,-1543.909467,-753.2829297,2024998.531,1717.874156,-1468267.094,3478559233,0.00910012751,3.322499999
2430.725,-999941.6756,1762154.997,-1500.954951,-834.1886502,2026098.119,1717.188536,-1467847.024,3479055263,0.009153099826,3.15255
2488.289,-1085186.062,1712165.29,-1458.05134,-905.8752822,2027101.075,1716.544126,-1467497.659,3479468126,0.009191947276,2.878200001
2546.231,-1168401.826,1657742.155,-1411.437382,-975.7658543,2028120.282,1715.888832,-1467144.442,3479885853,0.00922597388,2.897099999
2608.516,-1254741.004,1594809.14,-1357.639136,-1048.178503,2029234.137,1715.185762,-1466737.203,3480367850,0.009259029635,3.114250001
2667.94,-1333887.916,1530637.348,-1302.882205,-1114.460785,2030297.432,1714.504267,-1466367.363,3480805936,0.00928342157,2.9712
2726.958,-1409183.294,1463084.657,-1245.336297,-1177.42313,2031357.741,1713.822546,-1466003.372,3481237433,0.009301904332,2.9509
2785.01,-1479849.626,1393091.63,-1185.804425,-1236.422993,2032402.323,1713.147382,-1465651.976,3481654322,0.00931442347,2.902599999
2845.018,-1549185.268,1317232.47,-1121.379957,-1294.21644,2033488.72,1712.451226,-1465277.34,3482099133,0.009322055579,3.0004
2904.318,-1613826.165,1238953.843,-1054.997682,-1348.001097,2034561.75,1711.761393,-1464912.32,3482532873,0.00932390602,2.965000001
2963.937,-1674774.171,1157136.488,-985.7116275,-1398.61708,2035640.778,1711.069008,-1464544.193,3482970652,0.009320136673,2.980949999
3021.793,-1729903.624,1074945.959,-916.2026454,-1444.308204,2036682.44,1710.395708,-1464198.286,3483382328,0.009311329544,2.892799999
3080.734,-1781873.675,988595.8407,-843.2699323,-1487.286035,2037742.754,1709.714575,-1463840.072,3483808980,0.009296759711,2.947050001
3138.189,-1828340.491,902080.6941,-770.289118,-1525.618936,2038768.876,1709.051919,-1463500.436,3484213816,0.009277801836,2.872749999
3196.885,-1871434.336,811526.0521,-693.9933689,-1561.07109,2039813.964,1708.3822,-1463146.736,3484635736,0.009252706956,2.934800001
3261.383,-1913581.396,709756.4623,-608.3568592,-1595.625476,2040967.417,1707.6647,-1462720.631,3485144438,0.009215908289,3.2249
3327.199,-1950844.888,603760.932,-519.2816189,-1626.039765,2042136.881,1706.944263,-1462278.002,3485673317,0.009170795901,3.290799999
3389.322,-1980590.207,502011.1018,-433.8817855,-1650.179987,2043221.162,1706.267094,-1461884.574,3486143796,0.009124655774,3.106149999
3446.962,-2003407.795,406372.8361,-353.7026134,-1668.5635,2044206.857,1705.640552,-1461546.607,3486548258,0.00907996207,2.882000001
3505.798,-2021913.604,307768.9797,-271.1256975,-1683.318728,2045203.258,1705.013514,-1461195.195,3486969115,0.00902828745,2.941799999
3564.491,-2035517.253,208653.0024,-188.207641,-1693.975955,2046183.414,1704.399206,-1460846.206,3487387373,0.008971822858,2.934650001
3621.794,-2044090.699,111388.3559,-106.9211023,-1700.450853,2047123.385,1703.809035,-1460514.214,3487785539,0.008913276553,2.86515
3680.229,-2048034.043,11930.61379,-23.88388718,-1703.054757,2048068.793,1703.222224,-1460169.648,3488199069,0.008847533482,2.92175
3738.443,-2047137.594,-87191.13681,58.79225564,-1701.635888,2048993.564,1702.651234,-1459828.345,3488608962,0.008777512814,2.910700001
3796.519,-2041452.831,-185885.7054,141.0343109,-1696.243039,2049898.328,1702.096097,-1459489.299,3489016417,0.008703139871,2.903799999
3855.467,-2030811.377,-285629.3845,224.0736138,-1686.731582,2050799.598,1701.550003,-1459140.645,3489435693,0.008621743233,2.9474
3913.236,-2015647.353,-382725.4083,304.836018,-1673.491843,2051661.032,1701.029085,-1458806.405,3489837894,0.008539064111,2.888449999
3971.733,-1995561.067,-480157.555,385.8076498,-1656.176513,2052514.373,1700.519975,-1458464.291,3490249827,0.008449739328,2.924850001
4030.931,-1970441.017,-577615.4307,466.7314362,-1634.700005,2053357.588,1700.024217,-1458114.536,3490671219,0.008353655945,2.959899999
4089.198,-1941068.153,-672191.7254,545.1975663,-1609.733136,2054163.404,1699.553223,-1457776.267,3491079018,0.008256195112,2.913350001
4147.515,-1907128.998,-765288.8286,622.3752566,-1581.010127,2054947.203,1699.100933,-1457437.966,3491487090,0.008154272728,2.915849998
4208.655,-1866765.839,-860983.4471,701.6438074,-1546.970379,2055749.789,1698.652815,-1457066.718,3491935162,0.008037559144,3.057000002
4266.111,-1824457.598,-948911.5657,774.4239035,-1511.392029,2056472.389,1698.245638,-1456739.368,3492330470,0.007930465752,2.8728
4323.444,-1778120.126,-1034521.323,845.2355772,-1472.515528,2057169.305,1697.858993,-1456413.886,3492723724,0.007819955032,2.86665
4381.371,-1727234.43,-1118663.254,914.7861802,-1429.908461,2057849.91,1697.489901,-1456082.086,3493124811,0.00770326479,2.896349999
4438.218,-1673435.07,-1198749.533,980.9416936,-1384.940113,2058491.044,1697.146347,-1455762.969,3493510753,0.00758725016,2.842350001
4496.57,-1614365.222,-1278212.326,1046.541413,-1335.642582,2059126.47,1696.81762,-1455427.16,3493917068,0.007461263011,2.917599999
4555.664,-1550714.296,-1355666.932,1110.444321,-1282.596549,2059744.562,1696.508325,-1455083.187,3494333451,0.007328275406,2.954700001
4613.992,-1484256.882,-1428959.6,1170.878241,-1227.281558,2060326.195,1696.224006,-1454748.473,3494738802,0.007195143338,2.916399999
4673.343,-1413095.813,-1500146.077,1229.542832,-1168.119192,2060892.532,1695.959322,-1454402.307,3495158194,0.007053708379,2.967550001
4737.736,-1332059.099,-1573323.205,1289.813878,-1100.820087,2061486.684,1695.70773,-1453995.29,3495651518,0.006883019481,3.21965
4805.284,-1243009.758,-1645329.367,1349.085767,-1026.945716,2062081.954,1695.479257,-1453547.925,3496193978,0.006690601948,3.3774
4865.106,-1160896.742,-1704841.271,1398.046814,-958.8891257,2062562.728,1695.288544,-1453197.408,3496619169,0.006536314673,2.9911
4924.094,-1077153.429,-1759471.505,1442.971087,-889.5351592,2063007.389,1695.12193,-1452856.899,3497032358,0.006383262081,2.949399999
4983.837,-989736.3149,-1810572.086,1484.974562,-817.1898634,2063431.426,1694.977499,-1452507.906,3497455974,0.006223292432,2.987150001
5042.741,-901188.2694,-1856667.633,1522.848325,-743.9559612,2063820.486,1694.856187,-1452168.906,3497867581,0.006065044186,2.9452
5102.091,-809815.7824,-1898700.428,1557.370362,-668.4304053,2064186.26,1694.757107,-1451824.995,3498285265,0.005901769577,2.967499999
5162.828,-714297.9944,-1937030.143,1588.838742,-589.5214503,2064535.638,1694.681117,-1451465.059,3498722525,0.005728177332,3.036850001
5222.473,-618746.7924,-1969963.32,1615.866155,-510.6240567,2064849.407,1694.626908,-1451118.156,3499144051,0.00555844937,2.98225
5281.665,-522435.691,-1997958.609,1638.832325,-431.1342411,2065133.81,1694.593793,-1450776.685,3499559068,0.005389214946,2.9596
5349.289,-410892.3173,-2024164.306,1660.320697,-339.1124308,2065447.563,1694.597904,-1450331.228,3500100584,0.005165768904,3.381199998
5414.299,-302440.9511,-2043452.743,1676.127758,-249.6786314,2065712.866,1694.621988,-1449919.742,3500600909,0.004957134952,3.2505
5484.295,-184698.2491,-2057705.962,1687.798133,-152.6192364,2065978.526,1694.684387,-1449442.919,3501180787,0.004713174194,3.499800001
5550.535,-72685.5904,-2064912.835,1693.686997,-60.31433617,2066191.717,1694.760592,-1449016.052,3501700003,0.004493228104,3.312000001
5615.445,37305.31729,-2066034.172,1694.58386,30.29984434,2066370.946,1694.854725,-1448606.27,3502198508,0.004281105758,3.245499998
5684.445,154121.0362,-2060788.592,1690.257515,126.5132391,2066543.712,1694.985565,-1448143.328,3502761755,0.004040936605,3.45
5748.354,261899.324,-2050006.514,1681.39327,215.2650234,2066668.324,1695.117211,-1447746.249,3503244921,0.003835076805,3.195450001
5817.534,377762.574,-2031974.904,1666.583525,310.6585045,2066791.371,1695.290345,-1447281.025,3503811055,0.003594893759,3.459
5883.615,487316.8696,-2008609.716,1647.402757,400.8447745,2066879.465,1695.468188,-1446856.581,3504327604,0.003377614675,3.30405
5947.095,591223.8359,-1980578.788,1624.398185,486.3736887,2066939.274,1695.649972,-1446464.899,3504804306,0.003179709848,3.173999999
6013.119,697601.8878,-1945712.023,1595.788615,573.9303846,2066989.034,1695.858895,-1446041.186,3505320014,0.002969714655,3.3012
6080.062,803380.553,-1904512.768,1561.987164,660.9890218,2067024.237,1696.086787,-1445605.57,3505850225,0.002759867883,3.347150001
6154.626,918354.5664,-1851859.059,1518.792221,755.6111707,2067064.848,1696.372026,-1445065.079,3506508103,0.00251088704,3.728199999
6197.3141,982657.2556,-1818557.45,1491.474406,808.5301111,2067067.12,1696.530826,-1444792.513,3506839872,0.002391573167,3.2837
6263.343,1079723.116,-1762652.047,1445.615052,888.4125421,2067061.742,1696.785114,-1444368.577,3507355888,0.00221728706,3.311
6328.99555,1173100.308,-1701914.339,1395.79187,965.2609653,2067045.416,1697.045572,-1443949.379,3507866134,0.002061923982,3.267349999
6395.1869,1263803.184,-1635659.108,1341.441947,1039.911263,2067021.821,1697.316097,-1443523.17,3508384905,0.001926078183,3.332300001
6460.0701,1349099.479,-1566006.32,1284.303684,1110.11527,2066989.405,1697.584127,-1443113.431,3508883620,0.001821501177,3.1967
6523.8533,1429224.874,-1493184.876,1224.563955,1176.067618,2066950.607,1697.849205,-1442717.537,3509365471,0.001749681624,3.1851
6587.42335,1505188.482,-1416516.669,1161.665952,1238.599044,2066908.765,1698.115242,-1442324.196,3509844200,0.001710690563,3.174949999
6650.81705,1576862.857,-1336202.444,1095.773976,1297.604606,2066865.607,1698.381088,-1441932.946,3510320371,0.00170626348,3.16685
6715.21095,1645299.333,-1250901.39,1025.787766,1353.949684,2066824.662,1698.652492,-1441529.1,3510811854,0.001737885705,3.24815
6779.7768,1709304.265,-1161845.388,952.7181646,1406.651142,2066786.34,1698.922993,-1441123.055,3511306002,0.00180454737,3.2176
6843.8831,1768102.709,-1070174.68,877.5008311,1455.070479,2066751.324,1699.187397,-1440722.685,3511793228,0.001900841138,3.1987
6907.8805,1821916.013,-975685.0144,799.9685292,1499.389413,2066721.85,1699.446457,-1440323.594,3512278887,0.002022521959,3.200499999
6971.58695,1870487.86,-878931.5879,720.5774429,1539.396228,2066699.197,1699.697796,-1439928.042,3512760231,0.002163902237,3.17715
7035.4959,1914070.91,-779437.7218,638.9372475,1575.298446,2066685.901,1699.94294,-1439529.898,3513244722,0.002322949862,3.205300001
7086.65065,1945162.292,-698227.5956,572.3003665,1600.913654,2066682.878,1700.133005,-1439210.998,3513632781,0.002459993503,3.190849999
7150.8074,1979296.834,-594637.1144,487.3010366,1629.040088,2066690.411,1700.362875,-1438809.648,3514121171,0.002642102878,3.228600001
7215.08735,2007985.16,-489176.1355,400.7704217,1652.683612,2066711.807,1700.582268,-1438406.715,3514611492,0.002833324371,3.196150001
7278.89335,2030924.957,-383127.6158,313.7628629,1671.594717,2066746.949,1700.786886,-1438009.68,3515094646,0.003027986103,3.18315
7342.07395,2048141.251,-277065.3723,226.7508987,1685.793702,2066796.507,1700.975125,-1437620.346,3515568443,0.003223353073,3.129549999
7405.5825,2059887.376,-169686.2652,138.6674077,1695.489457,2066864.638,1701.150537,-1437226.884,3516047284,0.003424061623,3.231500001
7470.07705,2066079.905,-60153.88543,48.82937775,1700.613665,2066955.41,1701.314535,-1436821.225,3516540997,0.003633297568,3.216449999
7535.1796,2066450.316,50597.00215,-41.99328687,1700.945521,2067069.657,1701.463811,-1436407.845,3517044144,0.003847977689,3.3024
7600.68355,2060858.78,161900.096,-133.2505751,1696.370563,2067208.395,1701.595958,-1435989.444,3517553450,0.004065947245,3.24195
7665.61885,2049424.925,271791.0079,-223.3291166,1686.987889,2067368.587,1701.706212,-1435578.383,3518053874,0.00428010037,3.25265
7730.31095,2032235.234,380517.4793,-312.4293569,1672.870164,2067552.563,1701.795137,-1435170.476,3518550522,0.004492061235,3.21255
7794.46835,2009519.268,487300.3661,-399.9103544,1654.207799,2067759.496,1701.861255,-1434769.413,3519038906,0.004699456967,3.202149999
7858.4137,1981325.912,592399.7089,-485.9827092,1631.043103,2067991.728,1701.90505,-1434371.131,3519523980,0.004904012578,3.1913
7922.12945,1947798.639,695512.5495,-570.3957627,1603.496378,2068249.802,1701.925956,-1433975.861,3520005474,0.005105279127,3.17905
7988.80735,1907011.757,801395.4994,-657.0382025,1569.988519,2068557.127,1701.929244,-1433542.05,3520534024,0.005323822503,3.523150001
8056.6851,1859623.602,906735.0036,-743.1903522,1531.064896,2068905.098,1701.908228,-1433093.121,3521081123,0.005547279994,3.2359
8122.1735,1808424.032,1005717.776,-824.0969889,1489.020463,2069266.953,1701.857158,-1432676.172,3521589381,0.005751904223,3.3215
8187.73275,1751936.035,1101915.722,-902.677751,1442.646137,2069661.357,1701.77995,-1432258.583,3522098559,0.005953765206,3.22475
8251.9672,1691667.968,1193095.034,-977.1075067,1393.184114,2070076.394,1701.675955,-1431858.076,3522587053,0.006144164372,3.1958
8321.74715,1620890.144,1288413.307,-1054.854141,1335.118294,2070578.11,1701.545802,-1431381.77,3523168196,0.006366302204,3.847349999
8396.6237,1539051.555,1386025.918,-1134.393029,1268.010601,2071170.571,1701.38133,-1430838.069,3523831827,0.006614881342,3.617300001
8470.50195,1452612.581,1477245.802,-1208.63755,1197.168769,2071795.953,1701.181292,-1430309.594,3524477163,0.006850948343,3.78755
8544.3562,1360874.624,1563051.598,-1278.385049,1122.028407,2072464.725,1700.945643,-1429781.954,3525121780,0.007081064818,3.5768
8618.62955,1263588.029,1643603.413,-1343.765506,1042.393681,2073182.791,1700.67349,-1429248.57,3525773749,0.007307495762,3.88095
8694.3212,1159632.666,1719470.385,-1405.237164,957.3600487,2073963.916,1700.361653,-1428695.885,3526449673,0.007535763305,3.666799999
8767.90785,1054287.23,1786929.284,-1459.786996,871.2533518,2074762.114,1700.017787,-1428174.724,3527087414,0.007744543169,3.69465
8843.0262,942804.2841,1849146.442,-1509.979808,780.2019306,2075625.804,1699.633511,-1427632.354,3527751510,0.007954892522,3.8308
8917.56545,828653.271,1904020.34,-1554.121105,687.0508298,2076525.872,1699.214893,-1427098.894,3528405112,0.008154928101,3.60005
8991.37005,712584.7253,1951423.999,-1592.117578,592.418765,2077458.21,1698.763779,-1426576.968,3529045015,0.008343435977,3.800449998
9066.5488,591684.2982,1992456.661,-1624.853891,493.9404862,2078454.68,1698.271878,-1426036.763,3529707789,0.008531165573,3.708200002
9141.6641,468645.9166,2025996.519,-1651.437118,393.8213633,2079492.941,1697.745511,-1425498.538,3530368626,0.008710432496,3.813899999
9215.87525,345342.4495,2051696.421,-1671.603775,293.5920626,2080557.524,1697.190467,-1424973.886,3531013284,0.008877666796,3.58425
9285.9794,227677.1112,2069100.853,-1685.02996,198.0465946,2081589.587,1696.628545,-1424506.834,3531587604,0.009019641786,3.4086
9352.8554,114717.0083,2079436.591,-1692.718939,106.4164515,2082598.504,1696.060691,-1424082.748,3532109477,0.009142283856,3.2646
9418.83545,2920.560195,2083619.056,-1695.401276,15.82383228,2083621.103,1695.475119,-1423670.937,3532616621,0.009255168521,3.34105
9485.2924,-109707.9821,2081791.549,-1693.187961,-75.34539649,2084680.286,1694.863535,-1423254.067,3533130380,0.0093631828,3.300600001
9551.0029,-220775.2445,2074034.951,-1686.167648,-165.1513314,2085752.307,1694.236199,-1422847.394,3533631960,0.009462322167,3.267099999
9617.424,-332422.394,2060216.466,-1674.226412,-255.3228834,2086862.845,1693.58314,-1422432.678,3534143865,0.009556915734,3.387000001
9684.3603,-443978.2998,2040259.264,-1657.314659,-345.3126424,2088007.326,1692.906583,-1422012.522,3534662906,0.009646198803,3.297699999
